Wavelength_nm,Pristine ZnO,Pristine Co3O4/C,5% Heterostructure,10% Heterostructure,15% Heterostructure (Optimal),20% Heterostructure
200,2.208514289,2.4590583,2.274611124,2.419700651,2.745349979,2.596542861
200.500417,2.21620136,2.471099392,2.269421154,2.412381332,2.727144511,2.591826488
201.000834,2.216128163,2.457963702,2.286487688,2.401752187,2.725960813,2.607574343
201.501251,2.214166052,2.474659515,2.251140355,2.404007454,2.740039191,2.582139471
202.0016681,2.220763046,2.456843158,2.275544859,2.405457856,2.722473831,2.600031857
202.5020851,2.223894731,2.448785352,2.260564222,2.392196008,2.728015881,2.587928162
203.0025021,2.200872573,2.4618433,2.274701486,2.395507963,2.7190231,2.591851132
203.5029191,2.216262225,2.468402937,2.263846988,2.393013552,2.704642166,2.602295994
204.0033361,2.214137783,2.451470744,2.267524214,2.410529895,2.73102961,2.603397853
204.5037531,2.208563492,2.453855958,2.273140886,2.409308872,2.718604955,2.590159651
205.0041701,2.212064583,2.463398911,2.268075009,2.394689085,2.72722508,2.575209761
205.5045872,2.216645833,2.462193423,2.274515506,2.407178547,2.716873119,2.584615297
206.0050042,2.192145799,2.456558854,2.266594316,2.392942301,2.717642115,2.58727735
206.5054212,2.200438735,2.441052564,2.272398697,2.396165331,2.715008434,2.594660499
207.0058382,2.192072283,2.452622439,2.268895908,2.394762947,2.719807803,2.576961368
207.5062552,2.206121558,2.450814299,2.258291756,2.397941247,2.714917783,2.574577827
208.0066722,2.210930179,2.441260603,2.259097001,2.396505239,2.726083341,2.588974423
208.5070892,2.20369676,2.460832913,2.263855279,2.403382726,2.71603464,2.586120124
209.0075063,2.201526097,2.44560055,2.255202899,2.388971795,2.724389396,2.587791988
209.5079233,2.203480666,2.45166149,2.274772953,2.392912785,2.727055607,2.584573925
210.0083403,2.199995334,2.453335487,2.255812669,2.403309083,2.713722864,2.575630056
210.5087573,2.209565984,2.452086751,2.256306146,2.385706499,2.698980994,2.587665574
211.0091743,2.194525694,2.436126292,2.261161218,2.396253966,2.734094073,2.59505081
211.5095913,2.212070464,2.454291142,2.25946106,2.38369865,2.716501299,2.584001439
212.0100083,2.21405595,2.453693252,2.256091257,2.392982266,2.707983495,2.58184584
212.5104254,2.202428139,2.454098424,2.265360024,2.396272448,2.722424036,2.580534667
213.0108424,2.202875796,2.452365106,2.25861397,2.378661504,2.713730157,2.576209548
213.5112594,2.203244797,2.437350274,2.257616228,2.401690881,2.713026023,2.579751265
214.0116764,2.201939046,2.438868713,2.259376686,2.387866507,2.719835624,2.589492067
214.5120934,2.199310988,2.449099304,2.263349692,2.403970455,2.7151465,2.578690491
215.0125104,2.197858053,2.456888788,2.249639504,2.391755394,2.702207925,2.580602253
215.5129274,2.20780662,2.445148076,2.251625976,2.382185356,2.714397657,2.565847274
216.0133445,2.195268651,2.440649441,2.248360784,2.383973142,2.690269071,2.581714038
216.5137615,2.213215335,2.448847143,2.26158466,2.391457224,2.712246923,2.575098905
217.0141785,2.190627894,2.44400972,2.258486804,2.399273049,2.703948741,2.575096367
217.5145955,2.202910829,2.441620333,2.252589094,2.396877439,2.725386901,2.58722663
218.0150125,2.20388436,2.441226543,2.262338708,2.398277684,2.707367711,2.580413049
218.5154295,2.189740337,2.440090817,2.254698544,2.38251124,2.715634958,2.581678129
219.0158465,2.199151736,2.451786266,2.257536043,2.380828684,2.708883719,2.566069571
219.5162636,2.202497986,2.434296191,2.246828417,2.389863527,2.704914011,2.573056804
220.0166806,2.209197467,2.450532013,2.248491424,2.386465708,2.723537926,2.570391383
220.5170976,2.19016555,2.433423412,2.240012627,2.37799463,2.697174314,2.575647453
221.0175146,2.200867495,2.443677534,2.244970608,2.384888302,2.720809773,2.563365345
221.5179316,2.186538865,2.434202248,2.262977493,2.384890552,2.701711969,2.576945341
222.0183486,2.180830512,2.431224982,2.251699551,2.379479681,2.7085146,2.568700928
222.5187656,2.193266878,2.432659007,2.244260891,2.380467051,2.701306981,2.569663557
223.0191827,2.193625737,2.440351619,2.262726162,2.386071645,2.70153762,2.569171356
223.5195997,2.185595896,2.437202215,2.249260327,2.391151513,2.694094558,2.558042542
224.0200167,2.18379462,2.430565807,2.239766003,2.376787081,2.693136282,2.561457076
224.5204337,2.188281977,2.439056965,2.261254306,2.38081537,2.696209047,2.563968521
225.0208507,2.193960079,2.425439821,2.254571687,2.391563158,2.697514654,2.566755339
225.5212677,2.170621116,2.43281906,2.247984654,2.393838614,2.706491767,2.559758243
226.0216847,2.177164775,2.423658219,2.235290135,2.379854467,2.697883861,2.569103165
226.5221018,2.186267308,2.426612884,2.232267622,2.353879206,2.689390083,2.567460635
227.0225188,2.181874496,2.423578524,2.232528484,2.375843084,2.692187131,2.567928688
227.5229358,2.189471051,2.415943371,2.241656668,2.369665129,2.689961449,2.557548776
228.0233528,2.174412747,2.422818789,2.237494157,2.371847834,2.693005878,2.562010184
228.5237698,2.183415757,2.433101649,2.242265053,2.370659137,2.69906647,2.564289877
229.0241868,2.173464826,2.42585899,2.223181263,2.366938314,2.69608127,2.572507392
229.5246038,2.166371024,2.432348186,2.239126909,2.365020888,2.690171244,2.574267376
230.0250209,2.175846719,2.421031671,2.239763468,2.35736198,2.686282854,2.569455416
230.5254379,2.176736554,2.423851655,2.242142315,2.349564906,2.685165928,2.552935567
231.0258549,2.174999752,2.427800366,2.246690952,2.358160645,2.671678751,2.542583189
231.5262719,2.178579781,2.427644025,2.240473085,2.36177639,2.682482623,2.549449016
232.0266889,2.174980984,2.425695439,2.239351474,2.361282392,2.688165782,2.553095047
232.5271059,2.176896246,2.425226063,2.239048206,2.356495986,2.690998636,2.552827331
233.0275229,2.169500372,2.416763477,2.235921085,2.36082712,2.676530458,2.554303344
233.5279399,2.165695334,2.412063891,2.21885164,2.361748812,2.680764281,2.543407219
234.028357,2.176930656,2.412741583,2.207971217,2.353087771,2.669732123,2.54698515
234.528774,2.163945129,2.421093811,2.228837243,2.35173081,2.673993,2.548754665
235.029191,2.182156299,2.411691255,2.237112587,2.360119615,2.683770359,2.532756238
235.529608,2.18633959,2.406504591,2.223927098,2.350476239,2.680148059,2.544567685
236.030025,2.178864238,2.399850046,2.215825559,2.362613259,2.677739385,2.546552661
236.530442,2.165448703,2.424698129,2.225045525,2.358379797,2.681612488,2.550804452
237.030859,2.172013717,2.413875141,2.229729245,2.370208026,2.665277662,2.543159942
237.5312761,2.175003165,2.407964706,2.213843049,2.349044519,2.667139238,2.537476682
238.0316931,2.168524077,2.405489972,2.226500129,2.365450728,2.674267627,2.548290409
238.5321101,2.169744794,2.40345197,2.239500908,2.36707293,2.678775353,2.534729847
239.0325271,2.168737524,2.430003613,2.219967358,2.357843876,2.672357062,2.542735108
239.5329441,2.159351328,2.413912339,2.224726413,2.36059983,2.67535062,2.55405951
240.0333611,2.18207269,2.403460217,2.235401495,2.34842135,2.67618354,2.550304249
240.5337781,2.16118883,2.414466908,2.231475256,2.359689933,2.681863848,2.541939188
241.0341952,2.169391807,2.407002642,2.22670325,2.354968512,2.680238572,2.53844554
241.5346122,2.166650547,2.420583785,2.213878958,2.34704614,2.674003287,2.551331237
242.0350292,2.169047708,2.418453242,2.235096655,2.369805617,2.65985157,2.524493078
242.5354462,2.157444016,2.417669501,2.217637987,2.354902292,2.667219716,2.536776201
243.0358632,2.1709417,2.414468863,2.23119159,2.359480119,2.666136563,2.546129157
243.5362802,2.160430424,2.404883302,2.223139707,2.354234712,2.681823653,2.544407208
244.0366972,2.167141626,2.419552792,2.218333662,2.367323309,2.676808969,2.546568714
244.5371143,2.172022077,2.433794536,2.216648055,2.34827596,2.671375499,2.548222028
245.0375313,2.153068413,2.419098467,2.215629382,2.355323352,2.662887594,2.550826977
245.5379483,2.163129708,2.413629295,2.230957209,2.345398017,2.672799289,2.532179616
246.0383653,2.152044644,2.412909193,2.217525026,2.349895889,2.668120646,2.548463909
246.5387823,2.16957093,2.404103691,2.208987192,2.357702443,2.671630183,2.547969554
247.0391993,2.172686523,2.385352354,2.229831825,2.353435829,2.6726988,2.548986526
247.5396163,2.172466065,2.397533195,2.22118109,2.356715956,2.659605191,2.538119126
248.0400334,2.17029411,2.407812145,2.218733532,2.357139937,2.671973418,2.543857192
248.5404504,2.161428159,2.405926034,2.214970799,2.360255375,2.661173177,2.544831017
249.0408674,2.168235561,2.40953453,2.226765204,2.361124444,2.661796616,2.538059368
249.5412844,2.15760407,2.401825035,2.23055763,2.349176152,2.685163107,2.544310577
250.0417014,2.165880029,2.398010421,2.225285819,2.355107704,2.681948817,2.539346023
250.5421184,2.172597905,2.397065275,2.229490627,2.351811848,2.655126509,2.537278059
251.0425354,2.178130506,2.408492318,2.216424803,2.357298395,2.660831125,2.534812313
251.5429525,2.165217112,2.406008589,2.212501112,2.342664335,2.669488193,2.548227564
252.0433695,2.155168896,2.411685831,2.23385633,2.344026824,2.666096791,2.55928878
252.5437865,2.172404828,2.401653991,2.226214291,2.341554193,2.662068762,2.534410937
253.0442035,2.165596261,2.415146135,2.222287095,2.350103435,2.674715834,2.543198365
253.5446205,2.170079563,2.414092359,2.209942498,2.338786238,2.666090704,2.549039669
254.0450375,2.165597769,2.395688723,2.219156621,2.340258216,2.671537854,2.538215448
254.5454545,2.150064985,2.405419067,2.2133705,2.347544316,2.659921102,2.556601952
255.0458716,2.158968976,2.410284656,2.212733994,2.351372337,2.682991948,2.534477386
255.5462886,2.157668058,2.39481445,2.219282614,2.352742749,2.672025896,2.53793705
256.0467056,2.168464697,2.402445429,2.221426787,2.345039195,2.663819959,2.543145652
256.5471226,2.161683343,2.39853078,2.204331,2.356832828,2.669257814,2.532410664
257.0475396,2.162440098,2.413614555,2.210376453,2.331386157,2.656022468,2.527362678
257.5479566,2.15407145,2.398677373,2.220362426,2.342754136,2.664870526,2.52176456
258.0483736,2.152428076,2.400986626,2.229316498,2.343060404,2.661316317,2.534808238
258.5487907,2.164402141,2.396815879,2.210354433,2.351797747,2.667168258,2.52640276
259.0492077,2.157324882,2.402059582,2.221426587,2.341633999,2.667927813,2.535468328
259.5496247,2.156730044,2.400946816,2.214652242,2.334279214,2.659830227,2.53202805
260.0500417,2.163238997,2.414218271,2.206366385,2.348382101,2.671472842,2.528104071
260.5504587,2.160057629,2.387667506,2.209521541,2.342563486,2.653603165,2.527112245
261.0508757,2.169555155,2.396378342,2.228956331,2.345305753,2.655019284,2.522972561
261.5512927,2.150435981,2.397975188,2.209714717,2.340935706,2.653277469,2.530165566
262.0517098,2.153005853,2.39556616,2.211546785,2.327383092,2.656069287,2.517808787
262.5521268,2.171951458,2.389448422,2.207623637,2.34417418,2.659888303,2.526515188
263.0525438,2.149786709,2.392045586,2.210731017,2.34200654,2.655622498,2.535049527
263.5529608,2.157873453,2.396356489,2.203365965,2.323180482,2.645247193,2.521631714
264.0533778,2.146024094,2.403603551,2.198076947,2.340760921,2.649817761,2.523430446
264.5537948,2.148556744,2.393902507,2.212919339,2.338520215,2.649608272,2.522774256
265.0542118,2.136614071,2.399206341,2.208295644,2.346478444,2.655828166,2.510177302
265.5546289,2.151599208,2.39191721,2.203935331,2.348839591,2.654600704,2.515827235
266.0550459,2.145583466,2.394402904,2.215915823,2.340011763,2.652778851,2.527415416
266.5554629,2.148985871,2.386243214,2.203873038,2.331758157,2.660694894,2.517105395
267.0558799,2.138446824,2.398225616,2.206492323,2.338561395,2.650011611,2.504416567
267.5562969,2.155215325,2.381356465,2.210740647,2.333867784,2.651699038,2.528120292
268.0567139,2.1448072,2.394878693,2.217504314,2.332885488,2.644871971,2.515829161
268.5571309,2.143520335,2.391050399,2.212322056,2.329742814,2.656434087,2.515520144
269.057548,2.136022696,2.393916383,2.193399764,2.333379995,2.653162584,2.523071676
269.557965,2.148941482,2.397553415,2.196376126,2.324262347,2.64751485,2.52530779
270.058382,2.16410471,2.389477703,2.203377596,2.326051554,2.648305237,2.529989125
270.558799,2.137282406,2.397313283,2.188178617,2.337721314,2.6552111,2.521703058
271.059216,2.16414637,2.38694817,2.193385987,2.333734728,2.647511794,2.519623628
271.559633,2.144424877,2.395775112,2.207033919,2.323121391,2.65674091,2.528008556
272.06005,2.149771152,2.382116507,2.20195292,2.334410624,2.645077819,2.52819382
272.5604671,2.152969201,2.385057202,2.214319348,2.319589961,2.655098134,2.527758983
273.0608841,2.150860591,2.383442352,2.197713723,2.319683766,2.641801001,2.521454742
273.5613011,2.145370361,2.37245634,2.204541652,2.331255385,2.641308875,2.520319951
274.0617181,2.142183907,2.391698681,2.200101954,2.33699372,2.642663286,2.511878334
274.5621351,2.147432913,2.394351938,2.201816045,2.326245411,2.648857831,2.524331263
275.0625521,2.140528753,2.378518145,2.202902246,2.330806252,2.641853922,2.514695682
275.5629691,2.136470615,2.389178405,2.194709102,2.322066507,2.639785312,2.527075226
276.0633862,2.155184349,2.39980478,2.204986548,2.326471618,2.642593661,2.52195348
276.5638032,2.146002856,2.386038623,2.206360343,2.34063758,2.641753694,2.505903625
277.0642202,2.141625497,2.38113396,2.195754159,2.325668654,2.635771191,2.5096686
277.5646372,2.147398851,2.395719691,2.180088511,2.336907964,2.642275322,2.517803589
278.0650542,2.157119368,2.383974519,2.20698062,2.320898252,2.658864714,2.508756752
278.5654712,2.154020457,2.385082866,2.198384082,2.338159659,2.652790301,2.518441078
279.0658882,2.137743838,2.38617847,2.191819549,2.337785971,2.630539656,2.50895152
279.5663053,2.145896308,2.37302895,2.189986354,2.346697878,2.646226736,2.507485212
280.0667223,2.145019901,2.388994419,2.207388821,2.325472,2.643105457,2.513326098
280.5671393,2.135378369,2.389077335,2.209385882,2.329654062,2.643651208,2.518755683
281.0675563,2.146663747,2.400430889,2.195347524,2.333090496,2.654252478,2.511844179
281.5679733,2.155324987,2.390015962,2.196895256,2.337543884,2.638657496,2.502397184
282.0683903,2.155612161,2.388870191,2.196827087,2.319759577,2.651294022,2.515165122
282.5688073,2.140507541,2.399280407,2.213547025,2.346291225,2.643855886,2.515392264
283.0692244,2.152483268,2.371540799,2.203105725,2.328963697,2.639112254,2.510365757
283.5696414,2.145855763,2.398245888,2.200311152,2.32502623,2.651218417,2.530063761
284.0700584,2.143798416,2.383220484,2.195693622,2.332782186,2.651432712,2.505559835
284.5704754,2.146777367,2.381765018,2.209622461,2.332982406,2.639866838,2.515116763
285.0708924,2.13559617,2.392952995,2.195578647,2.318919994,2.642304938,2.507115209
285.5713094,2.149644576,2.38009398,2.209846927,2.305836791,2.64486825,2.502262599
286.0717264,2.140663581,2.372795376,2.20851464,2.322705912,2.639655363,2.512857814
286.5721435,2.158364546,2.38427046,2.205189441,2.325598433,2.643112453,2.50716796
287.0725605,2.141208028,2.382515909,2.192415133,2.330861103,2.631137753,2.5118597
287.5729775,2.143071015,2.388076809,2.198185607,2.329078401,2.641649414,2.507179257
288.0733945,2.136192235,2.375297886,2.199815409,2.321327466,2.6439367,2.503333468
288.5738115,2.148632264,2.384296169,2.196915998,2.33116195,2.639916755,2.505042332
289.0742285,2.138139839,2.379761968,2.197272684,2.330118308,2.649632459,2.50390031
289.5746455,2.132589145,2.389625562,2.183533699,2.330138508,2.627428791,2.514290077
290.0750626,2.135289001,2.385026948,2.199777282,2.323246546,2.65317382,2.532512319
290.5754796,2.142353211,2.383633736,2.191497321,2.333018398,2.63566903,2.507099343
291.0758966,2.139306003,2.377341728,2.199996345,2.335645175,2.635336801,2.513280034
291.5763136,2.132144975,2.379993317,2.194647486,2.329002277,2.647951565,2.513893767
292.0767306,2.148819905,2.38580264,2.205659185,2.330842129,2.651342608,2.519154502
292.5771476,2.128824194,2.389197547,2.195022245,2.32068893,2.647975965,2.521774045
293.0775646,2.14014206,2.383707503,2.191202481,2.321175473,2.634023752,2.513281386
293.5779817,2.146020605,2.381927509,2.200930528,2.325555107,2.636036163,2.514350216
294.0783987,2.145266857,2.37882358,2.191584168,2.323326962,2.625526293,2.515567931
294.5788157,2.135901427,2.378632984,2.201929241,2.317871127,2.633039771,2.514653071
295.0792327,2.130274244,2.380235796,2.214182116,2.330268991,2.642849715,2.502900842
295.5796497,2.141389872,2.37584766,2.201386491,2.321782289,2.637865965,2.507609506
296.0800667,2.134648055,2.385004605,2.193552928,2.324190234,2.636138743,2.511392312
296.5804837,2.144569582,2.374470018,2.196329971,2.319463852,2.624907051,2.521252842
297.0809008,2.134539891,2.370583884,2.192594334,2.325110873,2.635429034,2.507945848
297.5813178,2.134901421,2.378925971,2.209279963,2.325018476,2.638297455,2.509880495
298.0817348,2.137263348,2.383022092,2.200690338,2.325031188,2.625782109,2.499406891
298.5821518,2.143217771,2.381220103,2.185579798,2.317995619,2.641004347,2.512147301
299.0825688,2.141655093,2.368961986,2.196680648,2.315120909,2.639620915,2.494957737
299.5829858,2.125209493,2.376444412,2.201085299,2.307350737,2.633720932,2.495387129
300.0834028,2.136759647,2.371441531,2.189372908,2.310254248,2.630856968,2.50622072
300.5838198,2.130030819,2.376889283,2.193632389,2.326031414,2.631622046,2.504204529
301.0842369,2.13030745,2.372385669,2.185330542,2.314726804,2.629192983,2.500258974
301.5846539,2.133654255,2.377314044,2.19164152,2.308086264,2.627250844,2.495042405
302.0850709,2.12942706,2.380108702,2.181668237,2.320442574,2.628119357,2.496594513
302.5854879,2.134229497,2.373234936,2.18391646,2.319848757,2.626034481,2.500502721
303.0859049,2.132154543,2.377461831,2.180132139,2.316557735,2.626015344,2.503524123
303.5863219,2.129819461,2.373673345,2.184235619,2.311726358,2.635159117,2.50249608
304.0867389,2.129667706,2.368253057,2.18350631,2.315861571,2.630554534,2.498899622
304.587156,2.133547917,2.371024987,2.183807347,2.314865704,2.629633939,2.49832919
305.087573,2.128877324,2.375080684,2.189759407,2.314763993,2.619215527,2.498715175
305.58799,2.134715691,2.372112222,2.185213676,2.317357937,2.627813123,2.497563226
306.088407,2.124710828,2.373548834,2.181772071,2.309674039,2.627959678,2.499113485
306.588824,2.127942943,2.376677894,2.183741165,2.316877392,2.628807502,2.498863774
307.089241,2.124844694,2.370833667,2.186513642,2.321238083,2.630892418,2.50009352
307.589658,2.12600965,2.372558427,2.184803227,2.315146711,2.627656019,2.502160778
308.0900751,2.130673153,2.370848122,2.181831036,2.311192687,2.629232288,2.49648985
308.5904921,2.125465938,2.361541612,2.180600726,2.314185445,2.619765911,2.496037547
309.0909091,2.133961949,2.371636551,2.187404905,2.308106975,2.626427652,2.494256732
309.5913261,2.129160112,2.373617411,2.180670014,2.307187498,2.628308875,2.490994908
310.0917431,2.132997736,2.363736329,2.1952015,2.315512897,2.622623961,2.495385576
310.5921601,2.133168194,2.36938017,2.191397421,2.313796706,2.620128148,2.503365451
311.0925771,2.133567392,2.36405378,2.186955889,2.318776923,2.625599739,2.497676242
311.5929942,2.125725384,2.367806671,2.181156106,2.320312744,2.629608287,2.501395598
312.0934112,2.13536099,2.371976584,2.179264454,2.309540776,2.621170114,2.497195184
312.5938282,2.122563808,2.372121158,2.190173344,2.307937684,2.626560728,2.501505904
313.0942452,2.130174453,2.363268783,2.185413211,2.316197244,2.626357096,2.507143006
313.5946622,2.133400414,2.370589626,2.1841873,2.310514049,2.618678703,2.497101562
314.0950792,2.130438972,2.369736168,2.183511381,2.315456247,2.627966081,2.500115237
314.5954962,2.134579736,2.367286712,2.180650925,2.31257803,2.630464825,2.491312588
315.0959133,2.134413547,2.370486072,2.182739782,2.31693168,2.626097676,2.496645263
315.5963303,2.126684967,2.363611057,2.184977133,2.31222397,2.623965838,2.501463724
316.0967473,2.133970785,2.371063401,2.18122627,2.314959458,2.627588452,2.501442503
316.5971643,2.125330509,2.368436925,2.183045511,2.316603468,2.620288962,2.501238216
317.0975813,2.134108579,2.371322425,2.181190067,2.313846752,2.62278889,2.500497802
317.5979983,2.132954595,2.367833317,2.184305522,2.316443073,2.632166429,2.493514731
318.0984153,2.131037652,2.362699183,2.193823297,2.309710329,2.633198268,2.492548126
318.5988324,2.134777486,2.375789447,2.185706194,2.319866339,2.629962366,2.499394385
319.0992494,2.13245406,2.366489887,2.184046506,2.314914131,2.622418949,2.498649129
319.5996664,2.133611557,2.370611196,2.185358471,2.306321384,2.625434613,2.495751553
320.1000834,2.127432,2.373447638,2.185394939,2.31176616,2.628962486,2.497516675
320.6005004,2.131465367,2.379197094,2.183578223,2.315166948,2.632590302,2.494187214
321.1009174,2.13110084,2.381045236,2.184825321,2.311731002,2.626323501,2.489993573
321.6013344,2.128368897,2.370475057,2.178663158,2.313043258,2.62896142,2.494987982
322.1017515,2.127773942,2.365219297,2.18940604,2.315496412,2.631792379,2.490815663
322.6021685,2.127063047,2.36871642,2.181650311,2.319448586,2.626720522,2.498841518
323.1025855,2.132238285,2.371331935,2.188667094,2.315101527,2.625502036,2.499443836
323.6030025,2.13673308,2.374288643,2.189107401,2.316610885,2.626982913,2.498833514
324.1034195,2.12982804,2.369343577,2.184433834,2.31499586,2.625252829,2.496830374
324.6038365,2.128967655,2.366850757,2.187188357,2.306276164,2.628546593,2.489851893
325.1042535,2.128290628,2.369045313,2.182029154,2.314013571,2.624458002,2.494721633
325.6046706,2.130937497,2.369669701,2.183782407,2.311503443,2.626176743,2.496573216
326.1050876,2.13338471,2.367940301,2.188727641,2.32152374,2.623718732,2.492018473
326.6055046,2.124188241,2.361579241,2.176354582,2.30825065,2.618055944,2.489740777
327.1059216,2.126947814,2.362809627,2.184349337,2.307307894,2.622169921,2.499425386
327.6063386,2.124176457,2.367616637,2.179581012,2.310952593,2.620304526,2.489944911
328.1067556,2.1280898,2.369785422,2.179870894,2.315468223,2.625869921,2.494700377
328.6071726,2.129936684,2.364346864,2.191000248,2.308846045,2.629574026,2.484960583
329.1075897,2.124676634,2.361846217,2.187898528,2.305566493,2.619667182,2.490409226
329.6080067,2.126920764,2.360923797,2.182561628,2.30851138,2.618721015,2.490583568
330.1084237,2.129886079,2.367119716,2.176467643,2.307894722,2.621385846,2.496685271
330.6088407,2.122952568,2.363907239,2.180384017,2.313872496,2.620083417,2.491245727
331.1092577,2.11931956,2.361264158,2.180347893,2.311302271,2.617105664,2.491360152
331.6096747,2.124133181,2.35693185,2.181368802,2.311109233,2.619858894,2.494899304
332.1100917,2.124815656,2.36169501,2.183763676,2.31057374,2.616459078,2.488254937
332.6105088,2.127275263,2.359687015,2.181296321,2.304876744,2.617683857,2.49344073
333.1109258,2.125403928,2.363527466,2.17356762,2.30941078,2.613759566,2.492152791
333.6113428,2.121413431,2.358216246,2.171446721,2.302444346,2.623560892,2.48963931
334.1117598,2.118471684,2.365354359,2.178751303,2.309774546,2.611533631,2.493785917
334.6121768,2.112626843,2.359542298,2.175350031,2.308131694,2.61946158,2.490338415
335.1125938,2.119152746,2.360758225,2.178758254,2.309417398,2.615699261,2.489110127
335.6130108,2.12166812,2.361487826,2.17290495,2.308310865,2.619777513,2.490276119
336.1134279,2.123698947,2.356896292,2.177753594,2.302800396,2.610595316,2.489293645
336.6138449,2.123221256,2.350188024,2.175728577,2.3045021,2.611363763,2.492391331
337.1142619,2.125976524,2.367401818,2.175045388,2.303840657,2.607307043,2.494340065
337.6146789,2.118123228,2.354920623,2.173342833,2.30929858,2.617492073,2.491132312
338.1150959,2.123007471,2.351998867,2.180217246,2.304150112,2.610556355,2.490201149
338.6155129,2.128132832,2.360520909,2.177823638,2.304821521,2.62374652,2.488892499
339.1159299,2.115348692,2.353925535,2.1729772,2.299491489,2.61087062,2.48125369
339.616347,2.120601203,2.353324737,2.177734372,2.301664112,2.615791575,2.493628698
340.116764,2.117011292,2.359633427,2.172632373,2.299527174,2.616417316,2.489206878
340.617181,2.120256342,2.356445096,2.170901271,2.297751593,2.609648751,2.47584679
341.117598,2.114158395,2.359598236,2.171127603,2.305415357,2.614944561,2.487237165
341.618015,2.11471684,2.359783113,2.176642641,2.309872202,2.613356306,2.481637748
342.118432,2.116196386,2.364064937,2.166731596,2.30219806,2.612396012,2.483831468
342.618849,2.118023229,2.353720595,2.171029012,2.301591161,2.604935127,2.48426301
343.1192661,2.119553434,2.360019576,2.176419618,2.303174121,2.613014764,2.488820863
343.6196831,2.117786569,2.357406475,2.16956112,2.300741374,2.620077655,2.488397354
344.1201001,2.118760588,2.354362806,2.167675465,2.306061808,2.611828173,2.486161126
344.6205171,2.119797439,2.358187721,2.17156367,2.30803903,2.609737402,2.48647896
345.1209341,2.113103326,2.351616256,2.16565909,2.306372975,2.613122617,2.49311816
345.6213511,2.117722931,2.355717066,2.175322712,2.306367643,2.607417424,2.486285082
346.1217681,2.118116368,2.354172421,2.176600204,2.304211683,2.61180683,2.488719657
346.6221852,2.122585433,2.361890697,2.175564298,2.306854163,2.613775649,2.489707399
347.1226022,2.116329514,2.361512899,2.167858263,2.29697963,2.610476034,2.483533911
347.6230192,2.122473507,2.357568178,2.179110754,2.302629877,2.614819739,2.485941106
348.1234362,2.119675544,2.360037157,2.178327867,2.292306725,2.617429504,2.48781647
348.6238532,2.118566675,2.360931677,2.172087342,2.301262052,2.622265051,2.48078596
349.1242702,2.11578417,2.360893375,2.168355575,2.299431716,2.613632956,2.485630845
349.6246872,2.119814683,2.35485916,2.171827016,2.307174584,2.611397594,2.493915793
350.1251043,2.117174953,2.355293851,2.173734762,2.300640587,2.616970215,2.481390878
350.6255213,2.117446923,2.354361317,2.171500971,2.30434407,2.616172928,2.48530711
351.1259383,2.121520132,2.358921337,2.178532002,2.303773042,2.610468924,2.487102555
351.6263553,2.119511347,2.357384351,2.175703699,2.300277262,2.60922485,2.490565273
352.1267723,2.119493118,2.35531629,2.169763365,2.295327801,2.611445153,2.478680382
352.6271893,2.120786853,2.356734067,2.172583899,2.298572664,2.618640912,2.486941362
353.1276063,2.124259561,2.351688013,2.170724434,2.301596345,2.612858481,2.48880598
353.6280234,2.124647198,2.356406282,2.171365603,2.29949898,2.613184313,2.485383594
354.1284404,2.11958296,2.353326412,2.169779098,2.302388466,2.613661052,2.482878857
354.6288574,2.122352516,2.35145669,2.176905851,2.310528857,2.615010301,2.492613374
355.1292744,2.125426222,2.352906737,2.170800292,2.299696083,2.614145493,2.484432388
355.6296914,2.129503905,2.36629559,2.174617307,2.306590144,2.621995267,2.49319156
356.1301084,2.114185687,2.361652887,2.172001553,2.306380977,2.613696843,2.490322227
356.6305254,2.125417172,2.369480525,2.176269342,2.306641471,2.617343686,2.488790068
357.1309425,2.119947327,2.357061876,2.17281733,2.303431721,2.609888155,2.481849423
357.6313595,2.11746436,2.355120315,2.174605351,2.305805952,2.611798902,2.485192136
358.1317765,2.122473182,2.355040484,2.172556066,2.29877547,2.611335484,2.490286688
358.6321935,2.113659022,2.350824881,2.174874415,2.29947254,2.611452816,2.493773091
359.1326105,2.122527006,2.361074927,2.177101497,2.30076888,2.617217466,2.485833519
359.6330275,2.122803949,2.356748487,2.1727331,2.303875571,2.615289617,2.486300259
360.1334445,2.115738891,2.359384499,2.174630045,2.299260883,2.615653024,2.494414215
360.6338616,2.121900573,2.355642122,2.170929354,2.304897897,2.612668792,2.484239467
361.1342786,2.125977589,2.358658144,2.177172734,2.308419741,2.613376589,2.486428987
361.6346956,2.109906268,2.359704904,2.175470879,2.299414312,2.611269409,2.483093066
362.1351126,2.12006105,2.353846579,2.177945528,2.302877114,2.610771591,2.481011761
362.6355296,2.118959767,2.357772838,2.171691588,2.300046292,2.615822952,2.488893139
363.1359466,2.113980165,2.357667713,2.170729943,2.308231239,2.610260325,2.482141822
363.6363636,2.11498166,2.352236938,2.170133977,2.298310781,2.613362274,2.488350685
364.1367807,2.112309644,2.356909279,2.173363417,2.296056046,2.609668505,2.482731461
364.6371977,2.111379244,2.352878833,2.167324561,2.298931179,2.612782649,2.491150374
365.1376147,2.118732823,2.347315961,2.164765807,2.308918578,2.611267999,2.485921444
365.6380317,2.120338463,2.352148549,2.167036645,2.299680795,2.61141632,2.47705775
366.1384487,2.125224038,2.354847473,2.174319352,2.300385423,2.611018988,2.482143177
366.6388657,2.118985097,2.361639306,2.165904915,2.303654124,2.604814481,2.483287842
367.1392827,2.112447052,2.352082161,2.170885307,2.298176944,2.609309514,2.47616134
367.6396997,2.114629537,2.355757477,2.170827024,2.301227571,2.610548708,2.479215498
368.1401168,2.118613892,2.352495754,2.17299531,2.300072949,2.60814253,2.484555556
368.6405338,2.109136864,2.351503803,2.171522232,2.29693661,2.610227722,2.485218054
369.1409508,2.113433494,2.348107958,2.174045951,2.301001099,2.60000706,2.476563127
369.6413678,2.113021155,2.354668548,2.172861111,2.291167684,2.613464984,2.472836462
370.1417848,2.107148341,2.346567551,2.164787369,2.290293007,2.61135745,2.47409536
370.6422018,2.087521847,2.347386055,2.167228149,2.29547748,2.605030608,2.4845091
371.1426188,2.070801292,2.353735148,2.165820535,2.298708944,2.604238248,2.481292294
371.6430359,2.045829205,2.347616833,2.170726484,2.298221546,2.603282804,2.475457346
372.1434529,2.035453826,2.348876753,2.166491957,2.2956278,2.599755337,2.476580293
372.6438699,2.005986222,2.349404865,2.162447714,2.292723572,2.607031546,2.482093311
373.1442869,1.982081861,2.351025928,2.164026224,2.29442886,2.603108224,2.473873942
373.6447039,1.967962668,2.348108315,2.16893883,2.295445338,2.597876752,2.47824914
374.1451209,1.943252271,2.354622646,2.166943604,2.290111179,2.608482291,2.478675598
374.6455379,1.930862525,2.348915255,2.16739865,2.292396743,2.601371886,2.482737459
375.145955,1.911075539,2.34414533,2.159194292,2.292361275,2.605798719,2.469102127
375.646372,1.892253147,2.346643705,2.161699129,2.296017555,2.600415828,2.473772827
376.146789,1.870501548,2.340124702,2.168596451,2.301626242,2.611590704,2.468078226
376.647206,1.85901425,2.349901327,2.161963628,2.29477862,2.608445148,2.470695312
377.147623,1.845736909,2.34391615,2.162141612,2.292152118,2.60043377,2.481728929
377.64804,1.827573872,2.350615325,2.163963938,2.289677088,2.604519159,2.471981476
378.148457,1.816803805,2.350055087,2.16987581,2.293743066,2.60280488,2.469094405
378.6488741,1.803936117,2.34612312,2.167029139,2.297843684,2.59739543,2.472119163
379.1492911,1.788653999,2.345441278,2.167540557,2.288624039,2.606868657,2.473162848
379.6497081,1.773474196,2.349704477,2.160789327,2.292652908,2.601179827,2.484258078
380.1501251,1.75913357,2.349952733,2.162864943,2.294206936,2.60753104,2.480746017
380.6505421,1.742829291,2.343115998,2.168243208,2.2909361,2.609208053,2.477076498
381.1509591,1.729369758,2.346642534,2.166238605,2.298502367,2.608885416,2.472496901
381.6513761,1.713820027,2.352563322,2.16898418,2.297827788,2.605419994,2.473133621
382.1517932,1.704218784,2.345959774,2.168633019,2.292722433,2.597402218,2.479121718
382.6522102,1.691770438,2.354683096,2.169186118,2.286940349,2.598382817,2.476575821
383.1526272,1.67956544,2.346821289,2.170708384,2.285735038,2.611043147,2.478152928
383.6530442,1.66937763,2.352154422,2.165762168,2.292218321,2.602509798,2.484724097
384.1534612,1.656422663,2.350392034,2.167519618,2.288378401,2.604972291,2.485130193
384.6538782,1.646198925,2.350753207,2.173695544,2.298754045,2.602981047,2.479275296
385.1542952,1.638414087,2.354830673,2.169403235,2.292361076,2.608986087,2.478494546
385.6547123,1.633841378,2.342315372,2.170565367,2.289111907,2.608942256,2.473071246
386.1551293,1.61941415,2.349063111,2.172027948,2.296126352,2.60503128,2.482983808
386.6555463,1.613047741,2.348808568,2.168442133,2.290479165,2.609791545,2.476852961
387.1559633,1.594416564,2.350772092,2.171059062,2.289404648,2.61255721,2.484268496
387.6563803,1.590173722,2.347596305,2.171367423,2.29029289,2.607611811,2.475150382
388.1567973,1.580771305,2.35259208,2.169979335,2.290886264,2.605415247,2.481925168
388.6572143,1.579770933,2.347781383,2.167003335,2.289626357,2.60448008,2.473640086
389.1576314,1.560819457,2.348173757,2.161403986,2.296033778,2.611071317,2.469313321
389.6580484,1.558660711,2.349003238,2.170522254,2.300850503,2.606274691,2.481262287
390.1584654,1.543601406,2.354445051,2.168696897,2.297850989,2.594893799,2.46561666
390.6588824,1.543613272,2.347832604,2.171454524,2.292890001,2.603941805,2.475036598
391.1592994,1.535165303,2.353157651,2.169057218,2.296529507,2.606211904,2.480425614
391.6597164,1.528543872,2.348484069,2.17440067,2.300270044,2.60436408,2.477437601
392.1601334,1.513773271,2.345909813,2.166690461,2.29253877,2.608145811,2.480785282
392.6605505,1.51306396,2.346935493,2.167197455,2.303862192,2.604743203,2.480797668
393.1609675,1.50565729,2.355522331,2.176754549,2.296443112,2.613740505,2.473411659
393.6613845,1.505496656,2.359206478,2.168308194,2.306143236,2.613524715,2.483234872
394.1618015,1.489556876,2.353899884,2.169379449,2.292674484,2.608034624,2.47631088
394.6622185,1.477529302,2.345215751,2.17369945,2.300273729,2.600106856,2.481754673
395.1626355,1.485808526,2.350565728,2.169904359,2.303672457,2.602966583,2.475004782
395.6630525,1.471309579,2.352624183,2.166101669,2.296157794,2.606843289,2.479870391
396.1634696,1.471324746,2.344608894,2.166367921,2.297847016,2.607742684,2.476236163
396.6638866,1.458888849,2.352626802,2.172959845,2.294640318,2.599714877,2.475110105
397.1643036,1.450618537,2.344819269,2.171949438,2.295533602,2.607183051,2.472317111
397.6647206,1.445929335,2.352171178,2.16408419,2.295383265,2.606180851,2.481776986
398.1651376,1.445181732,2.345969553,2.161762349,2.289745982,2.612441541,2.474600904
398.6655546,1.441292892,2.337382383,2.162609359,2.30071052,2.603264075,2.479325621
399.1659716,1.430620477,2.352537267,2.168175252,2.295302859,2.60436136,2.483723462
399.6663887,1.425309439,2.347167731,2.16868164,2.295488408,2.614197943,2.474847457
400.1668057,1.418343271,2.349496841,2.174108944,2.291296969,2.602720667,2.471883318
400.6672227,1.416485669,2.348082226,2.16399949,2.29916089,2.603408909,2.472991396
401.1676397,1.409780868,2.352714629,2.163507248,2.292043325,2.602209709,2.476360924
401.6680567,1.403956276,2.351398657,2.16649752,2.288884128,2.607658651,2.474725614
402.1684737,1.397683648,2.344336689,2.168197063,2.292647077,2.603871435,2.482215485
402.6688907,1.390106145,2.346940755,2.165882613,2.298335862,2.606428321,2.476667204
403.1693078,1.396881022,2.346688907,2.17046386,2.299883517,2.601454935,2.47263078
403.6697248,1.38606343,2.351038803,2.158352732,2.295524383,2.609394143,2.471928389
404.1701418,1.378377011,2.347301065,2.16925244,2.299750043,2.605068128,2.476900395
404.6705588,1.366916953,2.341690041,2.159336594,2.292980449,2.595600719,2.471398192
405.1709758,1.371379173,2.342597845,2.158075974,2.293048325,2.600090891,2.472857843
405.6713928,1.364348342,2.334213657,2.161438859,2.292763371,2.603412409,2.478267938
406.1718098,1.360404043,2.346044539,2.163553386,2.288488376,2.599692638,2.471101303
406.6722269,1.352851388,2.34324568,2.159450408,2.292388327,2.601945781,2.478970591
407.1726439,1.34908505,2.343717752,2.164375595,2.291966893,2.59834968,2.467007218
407.6730609,1.353572073,2.344568977,2.16103926,2.281784228,2.599241631,2.47475174
408.1734779,1.345808605,2.340702256,2.1665578,2.28959773,2.601232854,2.471945521
408.6738949,1.341392649,2.349525619,2.158995608,2.284539865,2.605801305,2.46996665
409.1743119,1.333098544,2.348054729,2.162478171,2.294245958,2.602091565,2.47956183
409.6747289,1.341174051,2.341245319,2.158238709,2.295968962,2.599659418,2.471691829
410.175146,1.332338892,2.340160191,2.162574231,2.295014516,2.600781233,2.467774757
410.675563,1.330089092,2.341972689,2.155958199,2.299831002,2.602477505,2.476060339
411.17598,1.330981728,2.336706548,2.160746278,2.289664192,2.606819878,2.471862894
411.676397,1.314701286,2.344428645,2.162229417,2.286731533,2.606788428,2.470417515
412.176814,1.310116432,2.336952083,2.162562026,2.285411927,2.601507181,2.469692697
412.677231,1.307670878,2.338590531,2.167361233,2.289089139,2.605542449,2.470470797
413.177648,1.298949741,2.335005777,2.158588513,2.288977687,2.594671458,2.471253143
413.6780651,1.307390035,2.345498097,2.159607622,2.293248228,2.597248081,2.471265471
414.1784821,1.290333207,2.336421823,2.156681935,2.281873027,2.596644801,2.470466006
414.6788991,1.290144777,2.336623469,2.158576962,2.28412922,2.605242807,2.467741207
415.1793161,1.292037096,2.33730888,2.159978469,2.288132003,2.599052796,2.467186262
415.6797331,1.281311917,2.339743211,2.155382641,2.29527832,2.604290195,2.47619226
416.1801501,1.274461413,2.334120494,2.130185994,2.286018592,2.594720303,2.474130812
416.6805671,1.265645175,2.334457525,2.115724623,2.294082294,2.602486328,2.465526663
417.1809842,1.262994101,2.336852888,2.097394175,2.283714965,2.611311865,2.475496519
417.6814012,1.264438557,2.344356782,2.075262921,2.286467814,2.600648413,2.479914042
418.1818182,1.259379774,2.339758073,2.048178991,2.295002264,2.593575236,2.476501458
418.6822352,1.246019109,2.34010488,2.032941984,2.293267791,2.598074616,2.476931521
419.1826522,1.240306197,2.344492363,2.021105278,2.290788983,2.59886582,2.474300292
419.6830692,1.230062459,2.341949148,2.002616853,2.296777898,2.59929632,2.477315272
420.1834862,1.220651863,2.338382927,1.991084001,2.295040702,2.605403509,2.477140985
420.6839033,1.209659228,2.342423714,1.962428722,2.297538925,2.601208667,2.47547208
421.1843203,1.210713643,2.340988512,1.954122754,2.293505673,2.597570626,2.476242843
421.6847373,1.203591375,2.354872914,1.937530529,2.291094906,2.601370804,2.473212345
422.1851543,1.196020218,2.342171542,1.917353928,2.296213566,2.606374245,2.470502498
422.6855713,1.174244589,2.350072227,1.907984068,2.296180658,2.59794052,2.482657741
423.1859883,1.170276076,2.34217257,1.890318139,2.291485821,2.600312149,2.483018172
423.6864053,1.159277055,2.345864322,1.884356963,2.290508242,2.599335628,2.478240718
424.1868224,1.139714921,2.348964741,1.862875532,2.291579695,2.5996847,2.47270464
424.6872394,1.130792811,2.346626764,1.851635682,2.296056644,2.604572184,2.481589578
425.1876564,1.119397307,2.346415779,1.837877513,2.278552162,2.60248487,2.478437242
425.6880734,1.100009114,2.342300294,1.83057176,2.255991229,2.605849247,2.481982509
426.1884904,1.085174346,2.347139356,1.804316219,2.233323404,2.604081465,2.472856205
426.6889074,1.075668671,2.355707889,1.806960928,2.219046353,2.603266562,2.480901114
427.1893244,1.04325227,2.348382187,1.78615877,2.193449356,2.603425003,2.475365957
427.6897415,1.028407968,2.347253049,1.77967735,2.171989557,2.606561413,2.481730016
428.1901585,1.003807111,2.348347361,1.761656587,2.156843064,2.605302234,2.476373202
428.6905755,0.990640644,2.344507108,1.757281726,2.135448713,2.602624324,2.479589543
429.1909925,0.972133072,2.349406567,1.749634383,2.118114991,2.599225872,2.47293813
429.6914095,0.952006095,2.344431144,1.733199541,2.096361703,2.609785793,2.474253989
430.1918265,0.928848301,2.34436057,1.724719869,2.079398451,2.610108217,2.477413949
430.6922435,0.906826525,2.344036765,1.717925074,2.061990046,2.588545703,2.482418373
431.1926606,0.882340791,2.346948081,1.696741165,2.04206502,2.561014734,2.481644837
431.6930776,0.849980971,2.347697235,1.696863162,2.023279542,2.536684528,2.473617671
432.1934946,0.828400422,2.347361272,1.680646597,2.020789345,2.512206816,2.47816252
432.6939116,0.807122856,2.348723208,1.670273329,2.001037863,2.482946091,2.478041176
433.1943286,0.769386139,2.342566584,1.657206432,1.983476034,2.458298713,2.480751802
433.6947456,0.750970107,2.343346788,1.6554914,1.973060933,2.441295509,2.47408478
434.1951626,0.718290862,2.345800961,1.643269458,1.96268481,2.421708418,2.474406766
434.6955796,0.692243627,2.343183318,1.643644683,1.943476887,2.403631902,2.455705366
435.1959967,0.662138062,2.344404243,1.629169336,1.933669529,2.377428805,2.423638093
435.6964137,0.643775645,2.346657998,1.618054945,1.922156437,2.348927657,2.395389597
436.1968307,0.617979654,2.349838459,1.611011382,1.903131266,2.340970978,2.378008904
436.6972477,0.588247972,2.341893404,1.60023219,1.892261655,2.319464697,2.357102494
437.1976647,0.564817199,2.34633076,1.595920302,1.876323594,2.30038073,2.331689799
437.6980817,0.537872822,2.335000129,1.58563894,1.869618152,2.285362921,2.320044016
438.1984987,0.509689712,2.339591784,1.576810152,1.849500799,2.270039696,2.297523331
438.6989158,0.488410199,2.337957688,1.565860807,1.842340057,2.23802777,2.281663598
439.1993328,0.463015028,2.345590805,1.561101346,1.832232064,2.228624014,2.257592363
439.6997498,0.438965904,2.336657159,1.557680392,1.82206321,2.211847954,2.24192949
440.2001668,0.41188925,2.338104877,1.556875294,1.81019943,2.197437578,2.222295938
440.7005838,0.396811289,2.3366336,1.537861558,1.795209524,2.180641264,2.201866993
441.2010008,0.368267997,2.344031431,1.53278862,1.778370415,2.149874204,2.199905478
441.7014178,0.361877222,2.322843983,1.531310207,1.768812696,2.142768432,2.169876057
442.2018349,0.329558691,2.298727428,1.522754456,1.764871512,2.134898183,2.159678465
442.7022519,0.324975392,2.273040016,1.521704952,1.754297046,2.11281721,2.138441716
443.2026689,0.306152056,2.255569885,1.511571821,1.745136932,2.097721424,2.127141945
443.7030859,0.29397462,2.233854547,1.497736119,1.73619404,2.094333142,2.099695301
444.2035029,0.277140884,2.207306388,1.505991957,1.73480261,2.074410754,2.098012005
444.7039199,0.26181835,2.194496316,1.499477835,1.72327159,2.065352629,2.078548729
445.2043369,0.255214358,2.17700737,1.485642737,1.711239184,2.044676878,2.055940758
445.704754,0.238160152,2.148252657,1.492553317,1.702354861,2.036219074,2.047287259
446.205171,0.223318892,2.137906125,1.4832676,1.692340763,2.028266039,2.031901063
446.705588,0.213573774,2.119278418,1.474406995,1.68270125,2.017025912,2.022345146
447.206005,0.209301569,2.10433873,1.468337257,1.67331484,2.009923935,2.00688566
447.706422,0.198485936,2.086450098,1.465232716,1.672668831,1.992126461,1.994812476
448.206839,0.188820535,2.064663435,1.458542881,1.666876169,1.978527603,1.989733779
448.707256,0.175165975,2.05403594,1.453387588,1.660415139,1.964157475,1.969804461
449.2076731,0.171848002,2.037387457,1.459941729,1.643822565,1.955961365,1.96031936
449.7080901,0.163232858,2.02380776,1.443446627,1.638620154,1.946947634,1.946622683
450.2085071,0.15748783,1.994468455,1.441839782,1.640584132,1.936672072,1.944631204
450.7089241,0.154474406,1.990429347,1.436935007,1.633139666,1.930240395,1.931168331
451.2093411,0.142729751,1.973357652,1.431696733,1.625776775,1.923072155,1.91880599
451.7097581,0.14315829,1.958139337,1.424539994,1.617671473,1.916443455,1.910119991
452.2101751,0.137256562,1.94741276,1.428385193,1.613698904,1.90595335,1.897034436
452.7105922,0.134914007,1.939159394,1.420417352,1.603432642,1.891014091,1.884204423
453.2110092,0.127816821,1.923530814,1.418094629,1.597187509,1.88523144,1.877280684
453.7114262,0.129639363,1.903789865,1.412388421,1.595266946,1.882276073,1.870288262
454.2118432,0.124878038,1.896845312,1.420056705,1.586299672,1.86977646,1.849310361
454.7122602,0.111942679,1.881618779,1.401159764,1.582286004,1.860042547,1.845689882
455.2126772,0.120842085,1.865411471,1.4011863,1.579824257,1.847096612,1.84298081
455.7130942,0.109717531,1.860711441,1.39663834,1.568171391,1.832525937,1.831014909
456.2135113,0.116548732,1.844141717,1.399957376,1.564883292,1.844584893,1.821716669
456.7139283,0.106810847,1.832354927,1.392462582,1.562921315,1.832510239,1.823962852
457.2143453,0.112226672,1.824319583,1.391105202,1.562870223,1.824035821,1.814407388
457.7147623,0.100230448,1.813386189,1.375957653,1.554186485,1.822454733,1.807723832
458.2151793,0.099252625,1.80842298,1.38175001,1.546793156,1.811688238,1.795062565
458.7155963,0.097075255,1.801170721,1.378751243,1.541406461,1.800479437,1.783322037
459.2160133,0.098927074,1.794037303,1.372088065,1.538967953,1.795088957,1.780595056
459.7164304,0.092573162,1.777117862,1.36618317,1.53353178,1.787229727,1.76844677
460.2168474,0.105311875,1.771910892,1.367003978,1.52640866,1.784498422,1.769708148
460.7172644,0.093523761,1.756624653,1.360806088,1.525118132,1.787185303,1.752105161
461.2176814,0.096831096,1.744668962,1.355369806,1.521536595,1.77873395,1.750875008
461.7180984,0.090523644,1.740703955,1.354929431,1.513918632,1.766580802,1.741375163
462.2185154,0.099178188,1.730663569,1.348666605,1.518148745,1.768102092,1.740453859
462.7189324,0.085182187,1.728825819,1.348341558,1.510391578,1.759302034,1.72740373
463.2193495,0.082651642,1.716266409,1.343301213,1.505980953,1.749560945,1.720253803
463.7197665,0.092389473,1.711830606,1.333835894,1.507182706,1.742338487,1.717499319
464.2201835,0.088096857,1.697161152,1.330439531,1.498124405,1.736327685,1.711621832
464.7206005,0.084367614,1.695245549,1.324768683,1.488783512,1.734524576,1.707485256
465.2210175,0.094711671,1.68519932,1.324057597,1.491072312,1.731925917,1.706656098
465.7214345,0.090696482,1.676472626,1.32089344,1.492051641,1.719707734,1.695817958
466.2218515,0.091304149,1.670177182,1.312173519,1.49207728,1.718903476,1.696899894
466.7222686,0.088608995,1.662163971,1.307492083,1.480585761,1.711365147,1.682053435
467.2226856,0.085571747,1.649770373,1.302191256,1.473347695,1.710649536,1.683035835
467.7231026,0.078412822,1.651012337,1.29645832,1.467046565,1.70406121,1.665410163
468.2235196,0.087448838,1.644550662,1.291515255,1.465014035,1.693837617,1.669477256
468.7239366,0.087048661,1.63088148,1.277363817,1.464986766,1.689633841,1.661713105
469.2243536,0.081458494,1.628319336,1.278012512,1.45787093,1.686599018,1.656924126
469.7247706,0.081230545,1.622081085,1.267895899,1.456185608,1.682833942,1.649054912
470.2251877,0.085645587,1.620752685,1.262692306,1.44695605,1.682334306,1.649914393
470.7256047,0.07989907,1.611873811,1.256303606,1.446878105,1.675965566,1.635625975
471.2260217,0.081219457,1.597523572,1.250347077,1.444192309,1.671826943,1.634500177
471.7264387,0.082305295,1.600936238,1.243337663,1.440129319,1.656836088,1.627408312
472.2268557,0.08318886,1.590570461,1.231436629,1.43310955,1.651974848,1.620029099
472.7272727,0.080713209,1.586747426,1.217895244,1.424724064,1.654304302,1.6194452
473.2276897,0.076244985,1.581522505,1.210179775,1.429282946,1.64652064,1.613604294
473.7281068,0.073221736,1.572635154,1.196949576,1.415706105,1.647795752,1.602432241
474.2285238,0.082867878,1.571064869,1.193796226,1.412705044,1.639104227,1.601870003
474.7289408,0.074299199,1.56411507,1.181842955,1.405304857,1.629554957,1.600477187
475.2293578,0.078008303,1.564796984,1.167034443,1.404568524,1.630957933,1.59143959
475.7297748,0.087596692,1.55570741,1.158203444,1.395234161,1.625340762,1.585225205
476.2301918,0.088169743,1.549304337,1.142880957,1.39421987,1.621098414,1.593748654
476.7306088,0.077372391,1.54341462,1.133045938,1.396788919,1.61668014,1.578559758
477.2310259,0.083760431,1.539137617,1.11954012,1.386320062,1.606037309,1.574805961
477.7314429,0.077045627,1.531840596,1.100286814,1.375442497,1.598186805,1.572863158
478.2318599,0.077323372,1.534009841,1.09344252,1.368657725,1.586883874,1.559966137
478.7322769,0.078367692,1.520954059,1.071083084,1.366963091,1.590950865,1.562792253
479.2326939,0.074394455,1.524118512,1.050410533,1.359335784,1.58053474,1.554243766
479.7331109,0.076081801,1.51480857,1.039882121,1.348774763,1.566901983,1.550574046
480.2335279,0.073930938,1.503564249,1.024957348,1.341956628,1.565876037,1.541049427
480.733945,0.072305748,1.503300998,1.002984476,1.343110384,1.551357776,1.535079539
481.234362,0.0812211,1.503979762,0.985486603,1.334574945,1.551428536,1.537009299
481.734779,0.083687612,1.501628896,0.968309844,1.318463377,1.538750686,1.527634924
482.235196,0.070117042,1.500156673,0.940963285,1.314664531,1.537878328,1.516950588
482.735613,0.079469423,1.492089461,0.921227009,1.30188272,1.524124848,1.523599571
483.23603,0.077591705,1.484947669,0.907970426,1.295157401,1.522491468,1.510755033
483.736447,0.084333188,1.479740109,0.890088426,1.286687531,1.50758462,1.501690035
484.2368641,0.080554362,1.483599615,0.866917058,1.281887094,1.500030732,1.501089365
484.7372811,0.08005217,1.479082096,0.836982107,1.263593768,1.486729899,1.495196783
485.2376981,0.078614064,1.468890365,0.821585058,1.254490568,1.482236349,1.481142625
485.7381151,0.08044768,1.469962594,0.799933427,1.238373586,1.460694362,1.47844045
486.2385321,0.079079417,1.457665531,0.787038512,1.22795604,1.459692799,1.474055372
486.7389491,0.078311118,1.453967248,0.759924695,1.209395507,1.443932508,1.470154014
487.2393661,0.084103487,1.441921151,0.738873497,1.197140822,1.428007146,1.462413534
487.7397832,0.077363652,1.443184903,0.711937719,1.189618813,1.418376098,1.450909437
488.2402002,0.085222564,1.442239083,0.684842012,1.164595568,1.398602933,1.446347507
488.7406172,0.084817023,1.431437968,0.671911183,1.149126814,1.383490738,1.442481771
489.2410342,0.081293604,1.43273035,0.647661897,1.137349554,1.366790163,1.431135321
489.7414512,0.082159286,1.424714019,0.614241212,1.121720597,1.358043621,1.422843362
490.2418682,0.07959798,1.423705329,0.607243767,1.109721478,1.337474908,1.409930609
490.7422852,0.086767204,1.409213875,0.582696968,1.084455221,1.316476887,1.407992614
491.2427023,0.087608801,1.413796664,0.563314343,1.063648659,1.304119021,1.392456547
491.7431193,0.076652255,1.406028356,0.539412747,1.048880411,1.283272562,1.390345256
492.2435363,0.085597876,1.401861879,0.522629153,1.014515009,1.252624846,1.374698049
492.7439533,0.089444655,1.393071058,0.505268816,1.001971314,1.230396403,1.365301673
493.2443703,0.089133848,1.37743813,0.481601263,0.981465983,1.21101571,1.350002172
493.7447873,0.079034245,1.381725519,0.461151595,0.954053589,1.188148384,1.343635133
494.2452043,0.093297205,1.369909528,0.440381853,0.934303684,1.166140969,1.325128415
494.7456214,0.081286682,1.356595483,0.42772958,0.912470745,1.147378431,1.324706392
495.2460384,0.093816374,1.363067825,0.413813141,0.885172684,1.114563986,1.304073899
495.7464554,0.085157883,1.345360051,0.390219472,0.864899292,1.090403234,1.286077116
496.2468724,0.089184164,1.338630285,0.378493373,0.83859343,1.062751408,1.270648257
496.7472894,0.089588842,1.32608649,0.364757019,0.810777762,1.038307023,1.257541474
497.2477064,0.091873732,1.314739241,0.348811498,0.786066623,1.008231814,1.240906205
497.7481234,0.085215945,1.299420377,0.332677904,0.767546581,0.979455453,1.227781381
498.2485405,0.09162898,1.302841908,0.322136036,0.737814169,0.957852063,1.220869642
498.7489575,0.091295966,1.283321095,0.313698479,0.718951528,0.925677364,1.18755394
499.2493745,0.088120031,1.268638306,0.296299712,0.694754157,0.902548592,1.176096465
499.7497915,0.092981773,1.25902213,0.289168158,0.664923931,0.873359124,1.164595071
500.2502085,0.088391198,1.244562868,0.266136184,0.647732152,0.833838552,1.139409429
500.7506255,0.089397984,1.225989554,0.261397776,0.622126215,0.814800655,1.126154085
501.2510425,0.089437476,1.213933838,0.25824127,0.591449195,0.790371251,1.094863085
501.7514595,0.08892497,1.200754048,0.24268576,0.569908192,0.756721088,1.091690438
502.2518766,0.091530842,1.182117063,0.234582887,0.548917122,0.729114037,1.061173663
502.7522936,0.090407512,1.169554427,0.226513087,0.527766626,0.702828972,1.040681342
503.2527106,0.084875669,1.150553062,0.223672424,0.508805076,0.674644217,1.01645109
503.7531276,0.091348238,1.130855373,0.20995007,0.48130051,0.641961737,0.99657517
504.2535446,0.100186237,1.114145685,0.205336501,0.462885622,0.621925537,0.98048034
504.7539616,0.092852678,1.092140229,0.199791095,0.446292308,0.589917736,0.951303826
505.2543786,0.102816615,1.067303679,0.193035447,0.430264802,0.575433429,0.933239586
505.7547957,0.09132149,1.051701033,0.185516275,0.408868756,0.544078253,0.911777188
506.2552127,0.090847309,1.032665954,0.172412588,0.39242852,0.532100183,0.881855813
506.7556297,0.091823834,1.00394748,0.170611913,0.382462277,0.496775477,0.863610079
507.2560467,0.09355154,0.981744331,0.158975489,0.350142524,0.477281285,0.840657143
507.7564637,0.097598257,0.963000804,0.165251385,0.340915808,0.459211369,0.817923231
508.2568807,0.096105526,0.936547672,0.15261185,0.329163105,0.438223725,0.796345816
508.7572977,0.088478306,0.915445167,0.150232949,0.318617041,0.426402251,0.767645596
509.2577148,0.092310697,0.887972649,0.150714498,0.307077648,0.400837601,0.74525341
509.7581318,0.089954763,0.862546017,0.137983581,0.285141703,0.387920047,0.718892229
510.2585488,0.090372511,0.842781453,0.136211176,0.281485629,0.364154109,0.704403277
510.7589658,0.086633481,0.816650177,0.145914216,0.261913772,0.355253069,0.683088479
511.2593828,0.097717113,0.786360686,0.138314578,0.253652578,0.339438628,0.663623804
511.7597998,0.092436395,0.758317114,0.122167313,0.250598933,0.331624168,0.641762485
512.2602168,0.097834828,0.736517001,0.127938438,0.236313512,0.315445337,0.622253609
512.7606339,0.089259318,0.715828834,0.118994108,0.234992226,0.296973545,0.599270033
513.2610509,0.097728117,0.688490543,0.121873486,0.214601332,0.284905316,0.579837116
513.7614679,0.094004159,0.671033021,0.120874872,0.212430116,0.285469624,0.568996091
514.2618849,0.094268633,0.639025987,0.115728257,0.203198732,0.266514839,0.539000132
514.7623019,0.095878411,0.613333028,0.119847618,0.198040523,0.24988652,0.519153146
515.2627189,0.095741336,0.592337082,0.111786007,0.187906159,0.24375151,0.507681219
515.7631359,0.098407202,0.569229393,0.110576587,0.18393563,0.255709822,0.490845663
516.263553,0.100805525,0.550720066,0.107560624,0.179107094,0.225616068,0.468034971
516.76397,0.088858898,0.523701759,0.106739223,0.172380583,0.219375115,0.455031437
517.264387,0.094455784,0.499506808,0.103363965,0.169967493,0.21312173,0.43125112
517.764804,0.086049247,0.485312188,0.100466863,0.167327902,0.207242529,0.413484187
518.265221,0.098495253,0.467272936,0.102074947,0.152913285,0.200824693,0.40954905
518.765638,0.094691906,0.44535637,0.09910097,0.149899579,0.196948835,0.396043946
519.266055,0.095416385,0.4248764,0.10262335,0.153666164,0.18711002,0.382061531
519.7664721,0.09373452,0.415072365,0.097995583,0.148295732,0.183043898,0.363308969
520.2668891,0.098633088,0.388043565,0.101474631,0.142929194,0.18628399,0.351068497
520.7673061,0.093615685,0.369259262,0.099972592,0.138547076,0.175967647,0.343787881
521.2677231,0.099553801,0.361433485,0.091276842,0.145609336,0.176426926,0.328654275
521.7681401,0.105699101,0.341035947,0.095405474,0.134085247,0.172445392,0.312727784
522.2685571,0.098110954,0.331193163,0.099067422,0.1306768,0.166578806,0.304804634
522.7689741,0.093533933,0.31362275,0.096325482,0.13157998,0.160538275,0.298817595
523.2693912,0.094655733,0.307223455,0.09135265,0.128349042,0.163350757,0.288775768
523.7698082,0.098748856,0.292911956,0.093253271,0.13074443,0.152491531,0.278889657
524.2702252,0.100187245,0.275428772,0.095584021,0.133201899,0.152494034,0.272663765
524.7706422,0.100978674,0.261960993,0.086147782,0.122983334,0.14618022,0.264462201
525.2710592,0.10976946,0.261523478,0.095381966,0.114204955,0.147370851,0.245991961
525.7714762,0.100452829,0.248203093,0.088836562,0.118353431,0.143628693,0.245555719
526.2718932,0.091333324,0.237701383,0.099263115,0.108298816,0.147510192,0.234667542
526.7723103,0.098344583,0.224728301,0.092935964,0.122632271,0.131564842,0.228044886
527.2727273,0.095178059,0.216028518,0.093223118,0.115107634,0.142347191,0.219733048
527.7731443,0.106622495,0.206115053,0.09048103,0.11995302,0.141494959,0.222627517
528.2735613,0.102378685,0.209837623,0.088027166,0.112971362,0.138004774,0.207400827
528.7739783,0.103184232,0.197697179,0.097461847,0.113095156,0.134919794,0.211585988
529.2743953,0.10060528,0.194795614,0.08818633,0.113952123,0.12855293,0.195100615
529.7748123,0.105314498,0.183169158,0.095870217,0.115694818,0.129710322,0.200550299
530.2752294,0.095539225,0.175680196,0.088516203,0.112950663,0.128997195,0.202079885
530.7756464,0.102208232,0.166643409,0.093284659,0.112654894,0.131405356,0.185807558
531.2760634,0.109866302,0.161768283,0.089439338,0.113416088,0.127693216,0.180314848
531.7764804,0.099298113,0.162477969,0.083300771,0.103949646,0.129583263,0.187063556
532.2768974,0.113152843,0.160448951,0.091063829,0.114878088,0.124351307,0.165710105
532.7773144,0.106384913,0.145246855,0.087193704,0.106263073,0.12145517,0.169710763
533.2777314,0.100972839,0.147559484,0.087182177,0.104047705,0.115593718,0.157680129
533.7781485,0.110833145,0.146234705,0.091065119,0.103121685,0.123540591,0.161739501
534.2785655,0.107698269,0.141367147,0.088501204,0.11466242,0.115936178,0.156096512
534.7789825,0.104183649,0.134246436,0.081568341,0.108500588,0.118787485,0.1582111
535.2793995,0.104259157,0.133540955,0.088187086,0.115875982,0.120059137,0.155950644
535.7798165,0.101215669,0.139362375,0.07964198,0.107775539,0.127926616,0.146887382
536.2802335,0.105356043,0.127543946,0.092171405,0.102924398,0.114683889,0.149591282
536.7806505,0.107108794,0.130513387,0.090063314,0.099804955,0.118274495,0.148278226
537.2810676,0.111576887,0.126387999,0.084986165,0.098927276,0.113725891,0.138989101
537.7814846,0.104551778,0.116959644,0.087138907,0.100806157,0.121833635,0.144026912
538.2819016,0.104550056,0.120375983,0.089576989,0.101850534,0.122275769,0.137518638
538.7823186,0.101328082,0.114988923,0.085324369,0.09626129,0.124269591,0.131007765
539.2827356,0.104872598,0.12138965,0.08334419,0.106357349,0.110926326,0.139658682
539.7831526,0.110764983,0.113936373,0.078847048,0.099549105,0.120778062,0.136202136
540.2835696,0.100954028,0.109450179,0.078390443,0.101896035,0.113647599,0.127072227
540.7839867,0.105419434,0.109041549,0.087140373,0.099285214,0.111957861,0.11755955
541.2844037,0.106025065,0.09609528,0.084012438,0.099432061,0.110976202,0.126340018
541.7848207,0.092021694,0.101674266,0.082000977,0.09551156,0.117979693,0.125485788
542.2852377,0.097999502,0.098909643,0.077236761,0.09193649,0.114965828,0.12178845
542.7856547,0.103091913,0.098316968,0.08521121,0.096006592,0.107153108,0.120876144
543.2860717,0.105494883,0.099432517,0.083613569,0.092936446,0.113403146,0.119926081
543.7864887,0.110331685,0.097417542,0.077228811,0.094226861,0.106307342,0.116653335
544.2869058,0.100916215,0.092502083,0.07905037,0.097574221,0.112585403,0.115334859
544.7873228,0.101187735,0.100263245,0.079394766,0.090341175,0.108065491,0.115891155
545.2877398,0.106170882,0.096509789,0.079949749,0.094564022,0.107528869,0.117218732
545.7881568,0.10440452,0.093270327,0.079607112,0.096811711,0.109896707,0.112924831
546.2885738,0.103089513,0.0859424,0.079827913,0.093713982,0.113092405,0.106690881
546.7889908,0.102871316,0.088586849,0.082805965,0.094981804,0.094819935,0.109702332
547.2894078,0.099538626,0.086234765,0.08297585,0.097555978,0.117467056,0.107840666
547.7898249,0.096909336,0.092879292,0.082994214,0.094762082,0.115039425,0.106207202
548.2902419,0.102175592,0.088985567,0.07568398,0.091600515,0.110365443,0.116059053
548.7906589,0.102025328,0.096907307,0.079925796,0.084927831,0.116126339,0.106306899
549.2910759,0.098924498,0.091487118,0.079811537,0.090082696,0.108349291,0.108570276
549.7914929,0.099826899,0.082025291,0.076458388,0.090603141,0.102238872,0.102418908
550.2919099,0.099444378,0.085480956,0.077504739,0.087382594,0.103840121,0.100246797
550.7923269,0.100734304,0.083389227,0.080471377,0.090223808,0.101640757,0.102647357
551.292744,0.101009463,0.086784374,0.077678998,0.092621215,0.104104623,0.108241865
551.793161,0.093805315,0.087618248,0.081550559,0.088021574,0.10488957,0.109359122
552.293578,0.098110861,0.092116099,0.069913203,0.092502758,0.106191294,0.097836909
552.793995,0.100608663,0.077477897,0.076061332,0.100565011,0.106232827,0.09646962
553.294412,0.099226949,0.07866606,0.076350257,0.088107324,0.104032807,0.10687937
553.794829,0.104683597,0.079288458,0.076979092,0.102006765,0.106663479,0.103013548
554.295246,0.106003815,0.081415183,0.080730495,0.085129577,0.11168141,0.099448121
554.7956631,0.097486223,0.079589412,0.075824552,0.091719259,0.103459411,0.099694929
555.2960801,0.096711854,0.078645946,0.073795546,0.086783296,0.111517738,0.094215329
555.7964971,0.101508992,0.083823397,0.081024624,0.089802613,0.105926286,0.101780609
556.2969141,0.102507467,0.077976154,0.08060094,0.093698676,0.113246867,0.101912734
556.7973311,0.096480163,0.087019701,0.079482796,0.088516486,0.112841303,0.10103876
557.2977481,0.104544923,0.082234384,0.082817265,0.089968056,0.104760515,0.099399445
557.7981651,0.104893678,0.081845187,0.075894458,0.092297505,0.115029668,0.098852046
558.2985822,0.098308305,0.087425761,0.076932809,0.088520392,0.109084946,0.100244299
558.7989992,0.094270239,0.080763793,0.084281977,0.100619364,0.108747524,0.100572674
559.2994162,0.102787353,0.074985373,0.078363467,0.087831134,0.106077005,0.097862179
559.7998332,0.100898658,0.077224587,0.083889965,0.102633204,0.102745043,0.096500018
560.3002502,0.087456254,0.087468616,0.080418084,0.094110569,0.103920483,0.10036079
560.8006672,0.102096694,0.079902094,0.077408396,0.094052283,0.106553391,0.103713504
561.3010842,0.106173629,0.087365039,0.080530779,0.089841544,0.109879565,0.094806512
561.8015013,0.106036714,0.08060144,0.072621428,0.093309925,0.109114303,0.094486123
562.3019183,0.101795237,0.084731099,0.079276173,0.094445213,0.105402832,0.096545885
562.8023353,0.097755436,0.080436631,0.071696136,0.092535945,0.113834249,0.101234682
563.3027523,0.094867836,0.078283403,0.081236179,0.099150007,0.109103418,0.096557062
563.8031693,0.101293066,0.082688453,0.073352513,0.094616575,0.110025744,0.103295143
564.3035863,0.100571655,0.0811699,0.078031763,0.098851304,0.112603885,0.097211982
564.8040033,0.103938698,0.080573892,0.082176007,0.093563079,0.10869284,0.097696761
565.3044204,0.101762829,0.084570842,0.082385826,0.091104421,0.107544327,0.096531765
565.8048374,0.101877084,0.078485774,0.082746943,0.095373696,0.110184389,0.094047469
566.3052544,0.101088399,0.080317386,0.070614433,0.095728441,0.118700586,0.099887127
566.8056714,0.095945474,0.08734177,0.078945438,0.093403542,0.112424548,0.104789572
567.3060884,0.097584297,0.084227756,0.082223643,0.091299342,0.116821625,0.095015671
567.8065054,0.098467719,0.084755489,0.080188047,0.090377307,0.112110865,0.096438781
568.3069224,0.09327189,0.083336995,0.081276629,0.089248622,0.110943904,0.103905157
568.8073394,0.103270617,0.081924465,0.077129596,0.092634903,0.11159573,0.101701852
569.3077565,0.103123321,0.083416616,0.080016939,0.091631647,0.113519123,0.096896474
569.8081735,0.105850357,0.078600954,0.07619651,0.095861569,0.118889793,0.091770302
570.3085905,0.097899259,0.084292434,0.077833349,0.091504081,0.112564083,0.096582048
570.8090075,0.095400027,0.089080343,0.073200683,0.090820497,0.108653666,0.10296199
571.3094245,0.098970949,0.088630518,0.079208141,0.094832538,0.109073776,0.097726042
571.8098415,0.100072615,0.084081419,0.077455874,0.086901352,0.111847992,0.102065056
572.3102585,0.097169522,0.081546376,0.074244673,0.090492033,0.106407486,0.093406778
572.8106756,0.103822922,0.086609053,0.076080058,0.096228221,0.112206529,0.098666576
573.3110926,0.093310641,0.080821242,0.077088894,0.092191716,0.114750281,0.0962611
573.8115096,0.100224147,0.077079781,0.07956819,0.089684564,0.112841602,0.091740639
574.3119266,0.096496145,0.081036632,0.080184066,0.080163288,0.111277569,0.096831806
574.8123436,0.096208117,0.09469305,0.073217538,0.091259794,0.110674344,0.096004934
575.3127606,0.095718897,0.0810889,0.069211763,0.092731034,0.107127305,0.097277277
575.8131776,0.091770105,0.088037367,0.079070769,0.089639277,0.112840597,0.094629349
576.3135947,0.094685409,0.077522148,0.074992522,0.087728551,0.113511135,0.094773627
576.8140117,0.094254409,0.083718041,0.065727493,0.092788638,0.098992649,0.093087035
577.3144287,0.099377312,0.090329686,0.075361155,0.087995308,0.10278484,0.093935681
577.8148457,0.089951234,0.086294943,0.063356882,0.089398546,0.112739755,0.089894209
578.3152627,0.088916389,0.085069124,0.075568188,0.092371748,0.110165383,0.096154704
578.8156797,0.085121549,0.079241484,0.071507819,0.090354159,0.101493048,0.090881701
579.3160967,0.088013074,0.088578908,0.072639374,0.079864026,0.108966312,0.09199974
579.8165138,0.089097372,0.079716175,0.077377926,0.081254248,0.105723458,0.088114908
580.3169308,0.090041659,0.07826614,0.071090433,0.087264194,0.106725089,0.094249491
580.8173478,0.089068985,0.078031307,0.068902749,0.072131076,0.104355872,0.08873674
581.3177648,0.089320611,0.078134393,0.075117591,0.086326253,0.111260699,0.087493552
581.8181818,0.085728259,0.089899652,0.067987044,0.081421869,0.107730269,0.091605444
582.3185988,0.089221906,0.084842462,0.071192488,0.080104752,0.10413859,0.08338039
582.8190158,0.084905429,0.072975613,0.06438483,0.081236107,0.108429509,0.091131043
583.3194329,0.088874337,0.075710906,0.068568692,0.083554177,0.10509169,0.085161312
583.8198499,0.085301416,0.077352375,0.063941886,0.080390707,0.108606933,0.088715382
584.3202669,0.081745233,0.076354558,0.064255765,0.086729107,0.106028059,0.083219547
584.8206839,0.093386671,0.07951535,0.073676025,0.081485676,0.103220873,0.085174892
585.3211009,0.090836433,0.086147087,0.070699514,0.077215499,0.108939597,0.085315668
585.8215179,0.08472779,0.077145581,0.06456844,0.075490315,0.1087126,0.083994764
586.3219349,0.079855005,0.074359504,0.065045737,0.076701675,0.103295953,0.083263289
586.822352,0.081197261,0.07929157,0.070476128,0.078028666,0.112468587,0.086792261
587.322769,0.082521641,0.073802259,0.06881798,0.079488836,0.112880934,0.088163171
587.823186,0.093008364,0.076505763,0.064517014,0.087392414,0.104211731,0.083334193
588.323603,0.086921916,0.074070511,0.062759569,0.080169055,0.1029951,0.085282796
588.82402,0.07935085,0.077366458,0.07277629,0.075541573,0.111940206,0.083864289
589.324437,0.078270355,0.079608321,0.064481876,0.080806401,0.105698319,0.08239407
589.824854,0.085201036,0.078515945,0.070295062,0.076116087,0.108137494,0.08305952
590.3252711,0.081465133,0.075838497,0.066028546,0.072269712,0.097809624,0.087178389
590.8256881,0.078494696,0.079700306,0.065792566,0.081992475,0.103686337,0.081098667
591.3261051,0.085218474,0.086212771,0.065518887,0.078034125,0.109727195,0.083129502
591.8265221,0.081150606,0.079348288,0.06204246,0.078378183,0.106271733,0.084076903
592.3269391,0.081387069,0.086729983,0.060845877,0.082076394,0.110366152,0.083922128
592.8273561,0.084398301,0.07726406,0.064381854,0.086644304,0.101208289,0.084728504
593.3277731,0.083487803,0.07858087,0.062298129,0.082153457,0.102242074,0.088224985
593.8281902,0.076521922,0.082254439,0.065192806,0.07617256,0.112982464,0.087389637
594.3286072,0.083261297,0.083533321,0.063469729,0.079884184,0.107406832,0.075175406
594.8290242,0.074158838,0.084205513,0.066000689,0.07473385,0.113740416,0.084903207
595.3294412,0.083642632,0.083041188,0.067344096,0.076696291,0.115530658,0.079791887
595.8298582,0.082271277,0.079254182,0.062018355,0.084375922,0.107117362,0.07826668
596.3302752,0.078790839,0.083712765,0.065700769,0.082205071,0.100966566,0.089520655
596.8306922,0.084881292,0.087146213,0.07225417,0.077520693,0.11292497,0.077171799
597.3311093,0.082208214,0.089113054,0.065152804,0.086926015,0.110570129,0.085235368
597.8315263,0.078457775,0.083562289,0.056489963,0.077977965,0.10717738,0.081217287
598.3319433,0.07339366,0.084283063,0.063446637,0.07664309,0.107604858,0.089311214
598.8323603,0.075972891,0.089285811,0.07542983,0.08463228,0.106746036,0.082095837
599.3327773,0.076202997,0.0824167,0.064252011,0.078307985,0.115817773,0.087751069
599.8331943,0.083063885,0.081240698,0.068693988,0.079987416,0.102379572,0.091206657
600.3336113,0.078970796,0.080655372,0.06625005,0.075560605,0.11186261,0.088240989
600.8340284,0.072790071,0.088647768,0.064674225,0.075799851,0.111251678,0.084243527
601.3344454,0.077908173,0.079791113,0.062501965,0.086315181,0.106470434,0.08480322
601.8348624,0.079438481,0.083735493,0.064485961,0.075807485,0.110059878,0.083743227
602.3352794,0.076154624,0.082996195,0.063304372,0.079954815,0.105582922,0.088178483
602.8356964,0.073022568,0.08242669,0.064682362,0.076596756,0.106074462,0.082150724
603.3361134,0.074451801,0.082221539,0.071112818,0.074921554,0.111214412,0.083285493
603.8365304,0.075678741,0.086099528,0.065917934,0.08009331,0.113123664,0.077614768
604.3369475,0.069737194,0.081507515,0.060426562,0.08661683,0.11498649,0.082083308
604.8373645,0.0739255,0.087780569,0.062105038,0.07462726,0.107006685,0.081326788
605.3377815,0.069608386,0.083466235,0.071492192,0.079128432,0.106535343,0.083606176
605.8381985,0.061426505,0.089994347,0.056710226,0.079010693,0.105577464,0.08664036
606.3386155,0.08393215,0.088100358,0.06485885,0.071227889,0.117104491,0.07928174
606.8390325,0.076131893,0.088502385,0.053524759,0.070021776,0.113646893,0.08546741
607.3394495,0.066980674,0.084941438,0.066899837,0.077763954,0.109883563,0.084582735
607.8398666,0.074102,0.083190674,0.053417312,0.080732155,0.11050752,0.081006661
608.3402836,0.072437521,0.083576164,0.059218542,0.070553595,0.106402068,0.077067944
608.8407006,0.075666102,0.091585208,0.061899412,0.083648944,0.106690909,0.080624143
609.3411176,0.063960589,0.07601955,0.064346938,0.071783849,0.108835386,0.079557332
609.8415346,0.071773858,0.085722453,0.053108851,0.074524012,0.111983911,0.084233953
610.3419516,0.065232622,0.084255744,0.058572368,0.071970924,0.115676817,0.079764954
610.8423686,0.072136903,0.085572323,0.061145543,0.072119516,0.112688043,0.082091364
611.3427857,0.070176453,0.087082848,0.052509457,0.074041452,0.11130438,0.073581063
611.8432027,0.065505179,0.081930105,0.059434652,0.066921221,0.114735358,0.074442616
612.3436197,0.064374156,0.078370119,0.059370428,0.073870127,0.11167129,0.080426052
612.8440367,0.063864982,0.081461632,0.054473593,0.072669016,0.104705372,0.075441853
613.3444537,0.058212637,0.081045467,0.05329338,0.072029202,0.109830155,0.068630734
613.8448707,0.062085383,0.086747057,0.05530436,0.068940225,0.099675403,0.08646434
614.3452877,0.057699333,0.076621385,0.059933921,0.069868538,0.103473918,0.080280415
614.8457048,0.061616403,0.084474875,0.05124088,0.066814421,0.106182214,0.074294012
615.3461218,0.065414329,0.079947428,0.047136992,0.064654569,0.101163889,0.073790532
615.8465388,0.065099906,0.074689989,0.054285495,0.060274814,0.101790165,0.065953307
616.3469558,0.0571719,0.076533295,0.0538348,0.063380582,0.10842527,0.070399392
616.8473728,0.057898169,0.074318408,0.050546817,0.063619581,0.108938487,0.071217045
617.3477898,0.051877921,0.080420349,0.057251682,0.06351742,0.105742704,0.06884547
617.8482068,0.052518725,0.082483092,0.054216983,0.066232923,0.099406965,0.070589927
618.3486239,0.05950343,0.086830626,0.051693605,0.067444115,0.104121207,0.075270273
618.8490409,0.053692833,0.078533486,0.051392054,0.064485728,0.098460355,0.079460351
619.3494579,0.054360685,0.078446852,0.047885046,0.05988131,0.098915883,0.072607193
619.8498749,0.055654248,0.081271511,0.047197165,0.06530842,0.099414936,0.076917798
620.3502919,0.055442492,0.080574515,0.04994568,0.065295828,0.100973275,0.06838247
620.8507089,0.058661389,0.080622607,0.045913847,0.063557391,0.104571516,0.067510986
621.3511259,0.058278698,0.075040252,0.049172379,0.067892242,0.100404132,0.07322791
621.851543,0.059563399,0.08044823,0.050252464,0.067429701,0.105882155,0.067567583
622.35196,0.050223722,0.076568409,0.04952902,0.062746387,0.103220937,0.079701191
622.852377,0.047193587,0.073536558,0.048017132,0.061292575,0.102468642,0.073389209
623.352794,0.055563298,0.084366537,0.045992192,0.064525081,0.10370862,0.073571442
623.853211,0.055878444,0.080383547,0.051491953,0.065821462,0.100330964,0.069880208
624.353628,0.056799178,0.075405158,0.053963992,0.05964469,0.106572057,0.062207142
624.854045,0.056594166,0.082828712,0.046857585,0.061960772,0.102589885,0.069919338
625.3544621,0.054592205,0.074463288,0.041250026,0.052740458,0.102213386,0.075249149
625.8548791,0.052636023,0.07199006,0.049542563,0.057460939,0.105886006,0.06570081
626.3552961,0.0514232,0.075993283,0.055445468,0.065870614,0.100840235,0.071039355
626.8557131,0.059729789,0.082825395,0.047794423,0.061661736,0.103173003,0.069547223
627.3561301,0.051091301,0.076467288,0.049187328,0.062584662,0.102620159,0.075483637
627.8565471,0.056838789,0.083333673,0.039843998,0.068021714,0.102687061,0.071964999
628.3569641,0.049680691,0.082108347,0.04497785,0.06925196,0.100995327,0.068896679
628.8573812,0.048099615,0.08319898,0.050415437,0.056387806,0.101938165,0.070699085
629.3577982,0.045678379,0.074551696,0.05023473,0.071246183,0.096450843,0.064361137
629.8582152,0.046366402,0.073710992,0.047618706,0.053461912,0.099189105,0.074357346
630.3586322,0.054350852,0.080171104,0.047596194,0.066702328,0.101653879,0.072372762
630.8590492,0.04947625,0.083142918,0.051142048,0.062165528,0.100690604,0.075362987
631.3594662,0.056639263,0.077681756,0.045570272,0.054381743,0.099609208,0.065622234
631.8598832,0.050566939,0.083016624,0.044956718,0.065045843,0.105543799,0.068063908
632.3603003,0.051142763,0.079916662,0.05837548,0.0566335,0.106782878,0.072363799
632.8607173,0.049107847,0.077528602,0.049870059,0.066472302,0.105206976,0.065621702
633.3611343,0.057133344,0.084597701,0.048153891,0.05815263,0.101495994,0.076734118
633.8615513,0.056896353,0.075855798,0.042538344,0.062450561,0.103770425,0.075481424
634.3619683,0.053456839,0.087478896,0.051218851,0.054536417,0.101975372,0.068772403
634.8623853,0.053663668,0.083742237,0.046671201,0.054724055,0.098139524,0.066948501
635.3628023,0.049714598,0.077509808,0.037470185,0.064842573,0.099822519,0.070726145
635.8632193,0.046423343,0.08553227,0.048414775,0.066968737,0.105694873,0.070750351
636.3636364,0.050170028,0.080494539,0.054377109,0.055536903,0.105342397,0.067606784
636.8640534,0.046470434,0.078882738,0.047453656,0.059846711,0.09922332,0.068193214
637.3644704,0.048830606,0.08683186,0.046083479,0.054678657,0.104735048,0.063164791
637.8648874,0.052007575,0.083167508,0.039840084,0.068712828,0.097658564,0.068355324
638.3653044,0.041480263,0.082643119,0.04384895,0.055109311,0.099309584,0.066989816
638.8657214,0.049446635,0.088294944,0.048824461,0.065342829,0.099046874,0.06945227
639.3661384,0.052270824,0.07729628,0.049297388,0.062135317,0.105805807,0.071253821
639.8665555,0.050364358,0.076613114,0.04057813,0.062163924,0.101168366,0.07297759
640.3669725,0.051721419,0.07686365,0.043660958,0.055666273,0.096479828,0.068561038
640.8673895,0.043811622,0.072227769,0.042261169,0.063001398,0.0958522,0.070105311
641.3678065,0.046900527,0.074343702,0.045040432,0.051576746,0.099801442,0.066006491
641.8682235,0.04855564,0.076922845,0.039328285,0.060433632,0.100451402,0.071243713
642.3686405,0.039627121,0.078607331,0.04671527,0.058428022,0.095808038,0.0653823
642.8690575,0.045499155,0.077549086,0.045918214,0.053054635,0.100962756,0.072858203
643.3694746,0.050015062,0.081207705,0.046112585,0.051031095,0.101961949,0.060474014
643.8698916,0.035196298,0.079063219,0.040007358,0.062664813,0.103264187,0.062967374
644.3703086,0.040422272,0.067659295,0.045237549,0.052225528,0.106936262,0.065723895
644.8707256,0.045024168,0.086943669,0.040480498,0.056498787,0.101238814,0.069470296
645.3711426,0.040995277,0.078600984,0.038902108,0.049893311,0.096698473,0.059955916
645.8715596,0.032108297,0.081722343,0.032701602,0.050682656,0.101697896,0.069425659
646.3719766,0.039183649,0.077944339,0.033849923,0.064933934,0.089312245,0.061028619
646.8723937,0.040911268,0.0786879,0.043421525,0.051390864,0.093659182,0.068489109
647.3728107,0.036740646,0.079269579,0.038516263,0.054362119,0.089425263,0.063271574
647.8732277,0.038065373,0.078442723,0.044391475,0.05233191,0.089453872,0.059605474
648.3736447,0.041665525,0.072575966,0.043554934,0.050637954,0.093241398,0.058556064
648.8740617,0.037537671,0.069331551,0.037231488,0.057623765,0.095129016,0.065948764
649.3744787,0.032242175,0.073504381,0.037486365,0.053438893,0.095093975,0.05674281
649.8748957,0.046095319,0.072665829,0.037633741,0.053433822,0.09547998,0.068639742
650.3753128,0.041750864,0.069845277,0.040184398,0.051172745,0.090629332,0.059421997
650.8757298,0.038520297,0.068543665,0.045127954,0.053796191,0.088264986,0.048512934
651.3761468,0.031654045,0.074850124,0.03276627,0.038825543,0.090565274,0.051702271
651.8765638,0.030142649,0.063077971,0.038843096,0.051099704,0.089216612,0.060590938
652.3769808,0.034335267,0.072872966,0.037802801,0.04729776,0.086455218,0.050046269
652.8773978,0.034862088,0.068111744,0.033134282,0.051192727,0.091548028,0.049319973
653.3778148,0.025215498,0.069565225,0.032868273,0.045046096,0.094685754,0.06382738
653.8782319,0.031481252,0.071920846,0.032751302,0.04962053,0.089466214,0.050814031
654.3786489,0.031004176,0.066782993,0.03245917,0.038757551,0.091466225,0.054883222
654.8790659,0.036350212,0.069366188,0.02901847,0.042821154,0.088047723,0.057659851
655.3794829,0.036155472,0.065743607,0.035192062,0.050074901,0.082100379,0.053416831
655.8798999,0.025931216,0.068254453,0.033813118,0.036992513,0.087503793,0.056879738
656.3803169,0.029993709,0.074608819,0.031499447,0.040901797,0.086936403,0.052788608
656.8807339,0.030177173,0.069561929,0.037128904,0.044475328,0.082021069,0.048875363
657.381151,0.028779079,0.070396164,0.025598773,0.045324549,0.08936096,0.05321063
657.881568,0.034794538,0.070466336,0.035105491,0.049789514,0.083081694,0.052045663
658.381985,0.033920923,0.065976489,0.028464219,0.040813058,0.087694533,0.052334331
658.882402,0.030518665,0.067885803,0.035445791,0.045318367,0.084078045,0.051220686
659.382819,0.032822993,0.07090606,0.034763004,0.042016815,0.094518489,0.056285984
659.883236,0.028242059,0.073188715,0.028623035,0.04180775,0.090890438,0.047377547
660.383653,0.027076826,0.06170414,0.03303145,0.040334972,0.085856961,0.056396866
660.8840701,0.027297221,0.072205396,0.029824541,0.044985345,0.082033573,0.049180261
661.3844871,0.026813154,0.069873962,0.035359783,0.043387003,0.08972316,0.045203418
661.8849041,0.031371046,0.066264161,0.035906445,0.034869261,0.077783653,0.051280902
662.3853211,0.031677439,0.06511536,0.025776344,0.040597664,0.082587197,0.055954536
662.8857381,0.029724859,0.07034754,0.021780112,0.049853908,0.080419383,0.048200161
663.3861551,0.023639236,0.071161528,0.028092217,0.040382738,0.082384088,0.046939675
663.8865721,0.03268617,0.070830682,0.026740341,0.042861101,0.088691806,0.049797113
664.3869892,0.03075455,0.067826463,0.021326428,0.045491541,0.082013486,0.046557106
664.8874062,0.038156885,0.073802603,0.029060081,0.047049677,0.081472058,0.04538737
665.3878232,0.031225706,0.070768371,0.025337187,0.048515992,0.081801856,0.061292543
665.8882402,0.032036926,0.077097221,0.03512831,0.033432481,0.082225172,0.045737183
666.3886572,0.03668909,0.075203182,0.029833923,0.047004897,0.074187088,0.048318573
666.8890742,0.027964626,0.067257934,0.035267452,0.041036306,0.074299747,0.045420729
667.3894912,0.036610246,0.068625644,0.032828139,0.043574511,0.081553205,0.046944795
667.8899083,0.031292157,0.070170631,0.036629446,0.044923296,0.081031908,0.049941132
668.3903253,0.027319798,0.077701928,0.034668876,0.044496077,0.081513096,0.057872776
668.8907423,0.031806034,0.070278909,0.030100365,0.04187022,0.086780863,0.049387287
669.3911593,0.022450551,0.072745782,0.040243883,0.044162641,0.080175085,0.051962277
669.8915763,0.029835148,0.073985142,0.032470679,0.050041235,0.081128069,0.049696387
670.3919933,0.027722609,0.071287649,0.02575392,0.037541567,0.079683044,0.055771679
670.8924103,0.027236168,0.071035798,0.033973301,0.040502577,0.083366262,0.04875384
671.3928274,0.030056742,0.065778069,0.034441324,0.041530743,0.08276062,0.049839694
671.8932444,0.036948349,0.069415528,0.03312225,0.044236422,0.077113194,0.049354681
672.3936614,0.02887158,0.07330947,0.038513109,0.039077845,0.083294179,0.049306177
672.8940784,0.030593596,0.069965382,0.028637484,0.037860345,0.073291696,0.04655636
673.3944954,0.024206091,0.069989522,0.033757418,0.041554611,0.082944648,0.052803377
673.8949124,0.028539689,0.072218075,0.039343731,0.036374118,0.072927243,0.052225429
674.3953294,0.029458637,0.068706547,0.030668872,0.041485534,0.076458382,0.04920526
674.8957465,0.031388711,0.069099926,0.033101653,0.040764304,0.078297788,0.048857104
675.3961635,0.029132056,0.0749625,0.034323112,0.038925763,0.07754927,0.040143809
675.8965805,0.029802387,0.061334364,0.031801522,0.040965443,0.078533386,0.052270077
676.3969975,0.030708586,0.068533618,0.021000938,0.045942612,0.07170145,0.045390489
676.8974145,0.030628115,0.06680517,0.031519639,0.036323624,0.077577874,0.047967944
677.3978315,0.023799882,0.069320881,0.028576719,0.044120708,0.070009742,0.047277834
677.8982485,0.024091298,0.062227596,0.032711011,0.033600558,0.071591716,0.045501915
678.3986656,0.032184255,0.065293555,0.037213857,0.042317285,0.077145844,0.049589324
678.8990826,0.022777408,0.066729616,0.038807189,0.03867019,0.073317838,0.046167683
679.3994996,0.026951645,0.067375902,0.034390259,0.036058429,0.075577936,0.047315909
679.8999166,0.023517603,0.062830047,0.024491125,0.040151242,0.065765039,0.050808715
680.4003336,0.022811593,0.060751656,0.03383531,0.03477677,0.075112141,0.03811017
680.9007506,0.023248008,0.065408442,0.03143699,0.031407753,0.07506571,0.043709605
681.4011676,0.025856712,0.06064719,0.020297722,0.037757076,0.063708003,0.052433249
681.9015847,0.02578801,0.062060063,0.029999584,0.038462794,0.069108748,0.045526148
682.4020017,0.0211197,0.056632262,0.024356973,0.036660267,0.062825506,0.043478063
682.9024187,0.03495096,0.074799819,0.030862413,0.024502384,0.063681722,0.039433197
683.4028357,0.022199491,0.068199547,0.027043671,0.033981719,0.077709652,0.045986179
683.9032527,0.023216012,0.060009442,0.026007525,0.035113232,0.073592721,0.0493269
684.4036697,0.018097746,0.062122608,0.024616522,0.042017078,0.067613935,0.037378037
684.9040867,0.023240713,0.058364945,0.020371247,0.0345763,0.067064042,0.036971883
685.4045038,0.018715401,0.05923435,0.017815108,0.03093035,0.064765694,0.044300275
685.9049208,0.022787485,0.061344878,0.023200773,0.027872493,0.067062706,0.036438412
686.4053378,0.023793604,0.064462772,0.019960318,0.033425587,0.057867304,0.03416372
686.9057548,0.026016353,0.060658004,0.022158523,0.027710884,0.059306394,0.039746145
687.4061718,0.017195786,0.058441087,0.02142821,0.034800596,0.064243095,0.041835881
687.9065888,0.018586,0.059600384,0.026168085,0.030114873,0.057902316,0.036973521
688.4070058,0.022133972,0.058080186,0.025168307,0.028395776,0.056611306,0.036543848
688.9074229,0.021798786,0.057985443,0.026125695,0.032721433,0.059163803,0.045015174
689.4078399,0.02239678,0.064969713,0.021609496,0.03383708,0.059969825,0.037872469
689.9082569,0.021808157,0.057809891,0.020037062,0.026351693,0.059303641,0.037682546
690.4086739,0.023391485,0.058971051,0.024353256,0.031788895,0.057549541,0.036985461
690.9090909,0.01484532,0.056812474,0.023637645,0.025948084,0.06541365,0.035565423
691.4095079,0.01804556,0.059016112,0.019337412,0.030436333,0.058694264,0.037295605
691.9099249,0.022751468,0.05431858,0.012269735,0.026472183,0.051393005,0.037546595
692.410342,0.017972081,0.071458056,0.025834426,0.026685379,0.059600093,0.033223702
692.910759,0.020581707,0.049825516,0.018377796,0.025311228,0.054947625,0.035196979
693.411176,0.021888029,0.046537994,0.01716969,0.030756239,0.056966062,0.035829558
693.911593,0.020035208,0.053489426,0.029132837,0.020442863,0.060715204,0.035316883
694.41201,0.020635022,0.059268134,0.017613272,0.029408118,0.053292091,0.034536773
694.912427,0.011396002,0.047859373,0.016134691,0.026464318,0.060927914,0.026618894
695.412844,0.022265639,0.057188736,0.024652677,0.03707865,0.057337046,0.035273247
695.9132611,0.021387743,0.062056687,0.020092403,0.03123777,0.063078544,0.032018908
696.4136781,0.023388569,0.045820547,0.018153884,0.026776663,0.056408815,0.03798601
696.9140951,0.016142997,0.05719988,0.016619182,0.022387481,0.054082938,0.035893493
697.4145121,0.021798301,0.055006757,0.017401413,0.031531114,0.052070068,0.035601095
697.9149291,0.023340134,0.049240241,0.017737008,0.029243279,0.050510851,0.024813092
698.4153461,0.016113681,0.055768183,0.027654388,0.02722553,0.057523719,0.042425417
698.9157631,0.013301748,0.061956914,0.020626745,0.026101157,0.060549168,0.038343531
699.4161802,0.020413183,0.055415367,0.022871666,0.028736314,0.055760919,0.034471299
699.9165972,0.028671203,0.047591282,0.012964274,0.033112713,0.052020169,0.036900405
700.4170142,0.026071529,0.049106506,0.024599702,0.024354603,0.053529833,0.039943177
700.9174312,0.019893667,0.05641754,0.024322729,0.034644901,0.052954835,0.034056023
701.4178482,0.021370928,0.052447111,0.020141257,0.023784434,0.051129431,0.038429206
701.9182652,0.022747274,0.051948058,0.022337736,0.024630139,0.057374563,0.036706404
702.4186822,0.020335442,0.05558585,0.016950866,0.025953763,0.05250293,0.032594515
702.9190992,0.022899003,0.05579761,0.022044103,0.028359794,0.0588031,0.036061217
703.4195163,0.019127098,0.055147675,0.028354799,0.033720994,0.054739826,0.031524419
703.9199333,0.030852033,0.052729126,0.024791661,0.026938581,0.050195175,0.036161535
704.4203503,0.019475036,0.061969766,0.030946604,0.032212632,0.049882015,0.036608104
704.9207673,0.019058637,0.051609507,0.022097146,0.030614081,0.050462662,0.036726635
705.4211843,0.021753362,0.056842385,0.030720279,0.027412063,0.051641913,0.038128967
705.9216013,0.015822592,0.051879542,0.029802781,0.022108794,0.052400233,0.037329136
706.4220183,0.02544927,0.054602989,0.024980701,0.031082001,0.061377945,0.038778651
706.9224354,0.024772007,0.050185538,0.035562094,0.029022389,0.054291758,0.027921484
707.4228524,0.026546843,0.048346507,0.027599825,0.031544259,0.052852527,0.0305954
707.9232694,0.0252675,0.05245129,0.022238949,0.027087458,0.048951416,0.030159427
708.4236864,0.026320276,0.058309023,0.018383156,0.028206716,0.040250401,0.033189375
708.9241034,0.020201977,0.059393367,0.025111796,0.025281868,0.05133181,0.035747342
709.4245204,0.023810012,0.04838074,0.031363789,0.028157631,0.050767284,0.03848063
709.9249374,0.03039988,0.05571229,0.021643342,0.031099514,0.050916027,0.029817724
710.4253545,0.018307062,0.05358303,0.022438427,0.031386592,0.050446397,0.032279474
710.9257715,0.021103789,0.054728674,0.025293345,0.036620247,0.04744483,0.037154838
711.4261885,0.027386957,0.052359834,0.022820407,0.031657699,0.048190766,0.034912677
711.9266055,0.022724803,0.047053578,0.023230336,0.037564845,0.050027725,0.03029046
712.4270225,0.019102593,0.052796038,0.02558473,0.031089688,0.050412432,0.026862521
712.9274395,0.022462513,0.056434644,0.027871865,0.030575071,0.050624319,0.033106263
713.4278565,0.023023847,0.051081035,0.023926752,0.031666029,0.048021656,0.031332708
713.9282736,0.025333168,0.053212653,0.020799595,0.022504519,0.050838432,0.027554254
714.4286906,0.015286059,0.048361622,0.021158722,0.028636016,0.044616992,0.038642578
714.9291076,0.032341314,0.051007076,0.027154059,0.023548235,0.052609694,0.03102091
715.4295246,0.015668182,0.051040335,0.021802007,0.024131049,0.03899414,0.035363736
715.9299416,0.026258168,0.042649744,0.022207821,0.026297034,0.049347816,0.033038315
716.4303586,0.016352661,0.04141785,0.019639853,0.029758941,0.039409326,0.028481923
716.9307756,0.024515507,0.045125522,0.028345226,0.027315387,0.039378921,0.026886546
717.4311927,0.018951147,0.040262867,0.023320814,0.017810398,0.044087472,0.026136591
717.9316097,0.022632122,0.044470332,0.016630821,0.023647783,0.039164718,0.027565697
718.4320267,0.019509829,0.051347912,0.020580971,0.019397018,0.035987321,0.027289264
718.9324437,0.014799957,0.044291517,0.02119075,0.028979348,0.043341083,0.030876437
719.4328607,0.019795137,0.036626742,0.018652142,0.019357171,0.033286729,0.027283408
719.9332777,0.018987678,0.047742215,0.017356439,0.017007724,0.035998724,0.029178822
720.4336947,0.027794731,0.048909664,0.014510798,0.022495853,0.036876228,0.034042987
720.9341118,0.013306982,0.04604003,0.017348034,0.018952505,0.035251848,0.026490952
721.4345288,0.015138139,0.046001193,0.017569116,0.013341538,0.042102246,0.019173151
721.9349458,0.02144009,0.036559291,0.021538671,0.025807977,0.036752135,0.024054186
722.4353628,0.010707665,0.051378343,0.011680003,0.024258219,0.031653971,0.026025939
722.9357798,0.016978851,0.04089705,0.012209021,0.026428717,0.029468348,0.028704764
723.4361968,0.019485311,0.03619855,0.01697004,0.018928848,0.035387365,0.035319163
723.9366138,0.016591077,0.033663451,0.013007676,0.026290237,0.037566896,0.027971919
724.4370309,0.012574724,0.032948504,0.019920075,0.024837797,0.031690687,0.0268348
724.9374479,0.01843947,0.036704417,0.014394409,0.021542957,0.031373177,0.030544855
725.4378649,0.010630533,0.043711713,0.022654291,0.022037742,0.039290358,0.024592587
725.9382819,0.015947905,0.045924239,0.022680272,0.021618967,0.031316713,0.033008259
726.4386989,0.012177146,0.044851644,0.01924854,0.024671677,0.035928899,0.019472343
726.9391159,0.017939197,0.039501798,0.019648354,0.01745445,0.038994912,0.028147248
727.4395329,0.017558938,0.03012579,0.020811981,0.016753856,0.031740364,0.023310872
727.93995,0.015698346,0.039170522,0.019017185,0.023165062,0.031833492,0.02297774
728.440367,0.017649696,0.040877419,0.01788646,0.021148393,0.029070475,0.033762231
728.940784,0.017958692,0.039403511,0.018749007,0.01696823,0.038441476,0.024874684
729.441201,0.011564051,0.039286483,0.01238257,0.027297333,0.028915286,0.028902706
729.941618,0.015381983,0.03750867,0.019389915,0.022696643,0.037885795,0.023958127
730.442035,0.0177498,0.035566685,0.015743634,0.024497717,0.033317099,0.031408142
730.942452,0.017962003,0.037161041,0.013275025,0.021487323,0.028461623,0.027219735
731.4428691,0.014693136,0.045013049,0.017229612,0.025106946,0.035782903,0.026116617
731.9432861,0.01433994,0.046148911,0.012166139,0.019231799,0.02790206,0.024999081
732.4437031,0.020595188,0.037790214,0.010479242,0.020284544,0.037329044,0.025234973
732.9441201,0.01511654,0.037706706,0.024869466,0.013965975,0.041028378,0.026004862
733.4445371,0.022922473,0.032091456,0.011794342,0.026632447,0.03024792,0.029240419
733.9449541,0.016046629,0.039750259,0.025191016,0.017803374,0.029970506,0.03046851
734.4453711,0.018958698,0.037595801,0.017259246,0.017461936,0.031971163,0.026116714
734.9457882,0.019242335,0.039205275,0.014571367,0.017291878,0.032419883,0.022076135
735.4462052,0.016055852,0.039873503,0.017385181,0.020193397,0.02714146,0.020071951
735.9466222,0.021005268,0.040865068,0.01943889,0.019227117,0.02752692,0.020097167
736.4470392,0.019091988,0.042304077,0.014470199,0.025829518,0.033171235,0.02347694
736.9474562,0.021338886,0.044055074,0.023643286,0.022263398,0.036048652,0.02586002
737.4478732,0.016595914,0.037841662,0.022692408,0.025840223,0.035890809,0.029986674
737.9482902,0.014929282,0.038179258,0.024084374,0.020345517,0.033447866,0.025997876
738.4487073,0.015947183,0.042935528,0.025543696,0.02939903,0.04067829,0.021716729
738.9491243,0.020864994,0.032988073,0.021120367,0.030147858,0.034088728,0.025174342
739.4495413,0.022796151,0.0417865,0.023333515,0.022354563,0.034913611,0.027994604
739.9499583,0.022079631,0.033788809,0.026352834,0.026672147,0.038631971,0.031246731
740.4503753,0.017729918,0.042262089,0.021132133,0.022867326,0.037969448,0.022055515
740.9507923,0.021294391,0.044860299,0.026488089,0.022307351,0.036096809,0.02511415
741.4512093,0.026756439,0.037932076,0.023560308,0.016123764,0.029748507,0.023784145
741.9516264,0.027217406,0.040396025,0.028111321,0.022838854,0.035395477,0.028615683
742.4520434,0.017576461,0.039973076,0.02158833,0.034074847,0.034602802,0.023619154
742.9524604,0.019945632,0.047020271,0.02395613,0.026613068,0.024749656,0.03001165
743.4528774,0.019702836,0.043658431,0.018110056,0.022866352,0.037624865,0.021554259
743.9532944,0.019853824,0.038377263,0.023023123,0.024302046,0.033021633,0.029024654
744.4537114,0.02157438,0.041253619,0.025004584,0.018969421,0.030931083,0.027875236
744.9541284,0.019768413,0.034921843,0.025442864,0.023345543,0.031828652,0.024893563
745.4545455,0.016929787,0.037969927,0.012958699,0.013391067,0.033303346,0.027139677
745.9549625,0.022570655,0.037233105,0.024800328,0.022539781,0.036664379,0.025884983
746.4553795,0.016484469,0.040992722,0.027092508,0.026221508,0.033083702,0.024924351
746.9557965,0.01559387,0.034385347,0.027338344,0.033597203,0.033855281,0.030928945
747.4562135,0.018947799,0.040125576,0.020888004,0.022098037,0.02560869,0.022471638
747.9566305,0.016688085,0.032949747,0.018873703,0.018691428,0.026801346,0.027857457
748.4570475,0.02253534,0.031165759,0.023493158,0.023408465,0.031310246,0.028168544
748.9574646,0.02359097,0.037909182,0.013981181,0.020092226,0.032446288,0.019791549
749.4578816,0.018963116,0.025677909,0.019171608,0.014928757,0.034081525,0.027163343
749.9582986,0.015032915,0.028174344,0.020820327,0.025674412,0.032216283,0.025339888
750.4587156,0.019818661,0.038111933,0.022774306,0.016769709,0.0334612,0.029663649
750.9591326,0.026898329,0.030156039,0.025533406,0.022003677,0.025246071,0.022496772
751.4595496,0.02053509,0.032426637,0.024039221,0.02565043,0.025271001,0.021729185
751.9599666,0.020019845,0.040157124,0.016941659,0.021635311,0.028159922,0.024142803
752.4603837,0.014067536,0.031870497,0.018022655,0.01648569,0.023604667,0.028451639
752.9608007,0.017455745,0.034782036,0.020186298,0.018100105,0.027897537,0.024146487
753.4612177,0.015048657,0.032387403,0.017062159,0.020901037,0.019996399,0.027518432
753.9616347,0.020780734,0.023891454,0.023469548,0.020840122,0.03082202,0.015948413
754.4620517,0.01664501,0.031984103,0.020920031,0.017593928,0.018731785,0.024460909
754.9624687,0.017711808,0.030778527,0.018190758,0.016224047,0.028437649,0.020804206
755.4628857,0.021304841,0.036292234,0.016813704,0.014609854,0.027570965,0.022487448
755.9633028,0.016993759,0.032566634,0.017661966,0.007128534,0.02795535,0.022326918
756.4637198,0.018765331,0.029199514,0.018794037,0.019376081,0.025665415,0.023330814
756.9641368,0.018287974,0.028663811,0.017558652,0.016549109,0.02512751,0.020591486
757.4645538,0.009982764,0.029546348,0.010406181,0.015494353,0.022082541,0.017931354
757.9649708,0.016875322,0.03387266,0.01509691,0.018233849,0.017888843,0.024166521
758.4653878,0.014223423,0.027549882,0.020190006,0.019325137,0.017698533,0.018049939
758.9658048,0.014121871,0.031243337,0.021030546,0.019325685,0.025179666,0.015355188
759.4662219,0.02023483,0.027876191,0.017281333,0.019711143,0.02626174,0.018077005
759.9666389,0.01662561,0.032809383,0.016327564,0.014568706,0.026761277,0.015667364
760.4670559,0.01340461,0.028995583,0.013352875,0.022079394,0.027205448,0.020887568
760.9674729,0.011787085,0.032483637,0.01055074,0.012279194,0.022474664,0.020099882
761.4678899,0.013381163,0.028589786,0.022640677,0.014375146,0.028511543,0.01435377
761.9683069,0.006598507,0.030678444,0.018782879,0.020874441,0.021761269,0.015229691
762.4687239,0.012541339,0.026419601,0.015633586,0.014867289,0.019106165,0.02185509
762.969141,0.020753116,0.033215,0.014823939,0.014635279,0.018810178,0.019043086
763.469558,0.011965313,0.035024585,0.011222753,0.018525989,0.016893085,0.019282182
763.969975,0.01869954,0.019461763,0.020682568,0.010706905,0.021238998,0.033568834
764.470392,0.011535676,0.032184651,0.013048812,0.023348088,0.024187512,0.018100465
764.970809,0.01923376,0.026993276,0.0162303,0.015965074,0.017255363,0.021273709
765.471226,0.019941387,0.032967838,0.022025682,0.022999332,0.021955396,0.021159867
765.971643,0.018801098,0.027571082,0.015809526,0.014927141,0.020216216,0.01920024
766.4720601,0.023279549,0.034471028,0.021032643,0.017723882,0.023357738,0.021685509
766.9724771,0.015417729,0.027224057,0.01983177,0.019864537,0.024043023,0.022783786
767.4728941,0.014702377,0.032880443,0.017702071,0.019837235,0.025389889,0.017512619
767.9733111,0.019219664,0.027968907,0.015924521,0.019905299,0.020721703,0.018846739
768.4737281,0.015920798,0.034228146,0.014413409,0.023562992,0.024100756,0.021451239
768.9741451,0.018975758,0.030232624,0.014241148,0.017847993,0.021596693,0.025916996
769.4745621,0.0191207,0.025950384,0.019219052,0.016978662,0.024264822,0.019562167
769.9749791,0.020627589,0.028103355,0.022363239,0.020854438,0.029147096,0.025180985
770.4753962,0.022258131,0.028814159,0.023784112,0.022163465,0.025282011,0.018751435
770.9758132,0.018447364,0.034594723,0.024361266,0.024010592,0.02382928,0.020904897
771.4762302,0.024094116,0.022638971,0.023961644,0.020449914,0.025113913,0.020391179
771.9766472,0.022386249,0.035927137,0.022064353,0.027116437,0.021967334,0.02600418
772.4770642,0.019716397,0.024223634,0.025916062,0.014102569,0.021318656,0.019661505
772.9774812,0.024326916,0.038249882,0.019258524,0.020660737,0.023682656,0.018798422
773.4778982,0.019886556,0.037038959,0.015140003,0.030297738,0.03350067,0.01976711
773.9783153,0.019907331,0.03171186,0.017884167,0.021815047,0.02423562,0.022663735
774.4787323,0.022122949,0.02728131,0.015644293,0.018068998,0.025861002,0.024453482
774.9791493,0.023162099,0.031867153,0.017209199,0.017973134,0.017858951,0.019560519
775.4795663,0.021394187,0.030290225,0.01754939,0.024639119,0.03071831,0.025057906
775.9799833,0.023536165,0.027147965,0.019855077,0.027454617,0.027110355,0.026237917
776.4804003,0.022110353,0.031287638,0.021730805,0.018391913,0.031597278,0.027161784
776.9808173,0.023985702,0.029141452,0.018260617,0.024984634,0.02810388,0.019424372
777.4812344,0.024291304,0.022671601,0.020480398,0.020881879,0.02579402,0.024833101
777.9816514,0.018102962,0.030237672,0.020907629,0.025436439,0.022873547,0.025650421
778.4820684,0.018895146,0.029765837,0.020340508,0.027960739,0.025718742,0.026362486
778.9824854,0.022069491,0.038556319,0.021048393,0.024507273,0.021373764,0.025638894
779.4829024,0.0267009,0.027211306,0.023511827,0.024672374,0.032382903,0.031034369
779.9833194,0.026004101,0.03037894,0.015843518,0.028380067,0.027117271,0.024258926
780.4837364,0.026278888,0.03340366,0.019285389,0.024092391,0.028981573,0.020120257
780.9841535,0.030294919,0.030711122,0.026115712,0.025266663,0.024019278,0.028418731
781.4845705,0.021858461,0.0255683,0.021926242,0.025580302,0.020931229,0.029219817
781.9849875,0.028200551,0.033624606,0.015572997,0.026842225,0.02632247,0.029075174
782.4854045,0.015607243,0.031616399,0.022622199,0.02094069,0.024123051,0.033392211
782.9858215,0.017708895,0.025635153,0.019553691,0.018806875,0.023187008,0.02279481
783.4862385,0.025725662,0.025008543,0.025455449,0.019738825,0.025023097,0.026405461
783.9866555,0.025694021,0.031132584,0.012277624,0.022296021,0.027622611,0.023119985
784.4870726,0.012458469,0.029680647,0.031966709,0.02061907,0.02485846,0.03129333
784.9874896,0.027876849,0.029997546,0.017769637,0.026129795,0.026915093,0.022146128
785.4879066,0.026376387,0.02559335,0.01886265,0.018014727,0.017569999,0.02586956
785.9883236,0.021004671,0.030780608,0.019204532,0.024097225,0.017618225,0.020133053
786.4887406,0.020331414,0.022613108,0.023299141,0.024020006,0.024995492,0.024481473
786.9891576,0.020019167,0.025927668,0.019964647,0.018113053,0.021439676,0.024311492
787.4895746,0.017664115,0.025855145,0.017703188,0.01509663,0.01280911,0.02461392
787.9899917,0.017160917,0.018957299,0.022808896,0.024251564,0.02414755,0.01712074
788.4904087,0.018484886,0.029392827,0.015123084,0.017362461,0.020265078,0.020602836
788.9908257,0.019094389,0.021528749,0.021972635,0.022036818,0.025441697,0.024043951
789.4912427,0.015279139,0.019747471,0.016029965,0.020225248,0.020011019,0.026529483
789.9916597,0.016629644,0.019774961,0.016023985,0.012566148,0.025628534,0.018637598
790.4920767,0.021260102,0.018809437,0.013765496,0.024285238,0.014690162,0.026601829
790.9924937,0.015786692,0.026558097,0.014089347,0.021600087,0.024906227,0.02714658
791.4929108,0.011798806,0.030144309,0.011361538,0.016864784,0.021868538,0.022637777
791.9933278,0.017016165,0.024019144,0.014343417,0.018883821,0.018284537,0.021930526
792.4937448,0.017189328,0.022998101,0.005243658,0.022359954,0.023084173,0.023296875
792.9941618,0.015584166,0.020556523,0.016950211,0.019504524,0.016850151,0.016708053
793.4945788,0.006718934,0.022626077,0.015439176,0.008332942,0.019172875,0.011794775
793.9949958,0.014632061,0.022932726,0.012558554,0.021368743,0.020125604,0.014944157
794.4954128,0.003016923,0.025931793,0.014337007,0.020251653,0.022542595,0.014076747
794.9958299,0.014099794,0.024036477,0.015129518,0.021516632,0.021290686,0.014049761
795.4962469,0.013347742,0.025279734,0.011211053,0.012464837,0.016702845,0.021594859
795.9966639,0.01912399,0.021802444,0.011052901,0.0142906,0.01476224,0.020856514
796.4970809,0.020123744,0.01718127,0.018365138,0.022283955,0.015130582,0.017656308
796.9974979,0.013634621,0.022976605,0.011346041,0.016418846,0.020886332,0.022412137
797.4979149,0.017306626,0.025818025,0.0173874,0.02006629,0.02824234,0.014863969
797.9983319,0.018612345,0.020934581,0.011364239,0.018084666,0.015775327,0.015379471
798.498749,0.018467775,0.022062608,0.016398199,0.020861183,0.024760539,0.016104034
798.999166,0.014071073,0.028857815,0.010568181,0.015511231,0.021564248,0.016138121
799.499583,0.020516328,0.016473858,0.01858767,0.01379576,0.022228952,0.022131775
800,0.010075595,0.029489733,0.02023493,0.015455275,0.019381106,0.014842517
